TimeStamp,GSR Data,ECG Data,EMG Data,Acc1 X,Acc1 Y,Acc1 z,Acc2 X,Acc2 Y,Acc2 z
15,483,507,508,15560,-5376,3152,4384,4116,-15204
21,483,509,510,15608,-5504,3216,4376,4148,-15196
27,484,511,515,15548,-5392,3392,4348,4016,-15172
32,484,510,519,15584,-5540,3236,4296,4052,-14972
38,485,510,516,15564,-5488,3216,4392,4012,-15132
44,485,510,508,15584,-5384,3288,4376,3976,-15064
50,485,508,510,15556,-5524,3440,4340,4020,-15348
55,486,506,511,15472,-5456,3140,4264,4124,-15248
61,486,504,503,15524,-5344,3272,4344,4016,-15064
66,486,500,504,15600,-5560,3068,4448,4084,-15120
72,487,497,505,15576,-5464,3324,4380,3984,-15020
78,487,496,504,15556,-5512,3376,4316,4120,-15140
83,487,494,502,15628,-5532,3300,4360,4100,-15020
90,487,492,496,15596,-5456,3256,4368,4080,-15068
95,488,491,495,15560,-5500,3176,4372,4180,-14944
101,488,490,496,15540,-5500,3348,4428,4108,-15220
106,488,491,498,15516,-5456,3336,4340,4100,-14932
112,488,492,499,15604,-5472,3272,4348,4068,-15140
117,488,493,502,15556,-5444,3352,4288,4144,-15076
123,488,493,497,15688,-5464,3320,4280,4084,-15184
130,488,493,496,15552,-5468,3364,4344,4060,-15136
135,488,494,502,15600,-5468,3468,4404,4068,-15288
141,489,495,506,15648,-5440,3240,4404,4020,-15208
146,489,496,498,15584,-5388,3336,4356,4052,-15168
152,489,498,496,15576,-5444,3284,4308,4024,-15184
157,489,501,500,15620,-5428,3152,4364,4020,-15004
163,489,502,500,15552,-5404,3304,4376,4012,-15008
168,489,502,505,15592,-5548,3216,4348,4044,-14980
175,489,504,503,15508,-5512,3296,4412,4048,-15148
181,489,506,503,15504,-5484,3436,4440,4168,-15220
186,489,506,505,15592,-5496,3308,4368,4040,-15132
192,489,505,508,15536,-5416,3164,4388,4136,-15216
197,489,506,506,15680,-5516,3216,4344,4088,-14928
203,490,506,504,15564,-5348,3208,4296,4096,-15136
208,490,505,507,15532,-5428,3264,4248,4148,-15072
215,490,507,506,15548,-5432,3160,4384,4196,-15008
221,490,509,511,15596,-5428,3288,4372,4152,-15232
226,490,509,507,15624,-5516,3300,4368,4124,-15100
232,490,509,504,15604,-5496,3228,4284,4016,-15312
237,490,510,504,15520,-5532,3344,4324,4048,-15204
243,490,511,508,15616,-5416,3172,4300,4008,-15180
248,490,511,509,15668,-5392,3188,4260,4108,-15132
254,490,509,511,15568,-5456,3152,4284,4084,-15200
260,490,507,509,15596,-5464,3360,4348,4264,-15312
266,490,507,506,15712,-5440,3356,4300,4152,-15064
272,490,506,504,15512,-5336,3372,4392,4116,-15068
277,490,507,507,15508,-5448,3244,4352,4052,-15248
283,490,508,504,15512,-5640,3272,4380,4132,-15128
288,490,506,504,15548,-5436,3312,4412,4120,-15304
294,490,504,505,15524,-5496,3316,4400,4088,-15152
300,490,504,505,15572,-5472,3196,4400,4056,-15240
306,490,506,506,15768,-5480,3224,4376,4012,-15180
311,490,508,505,15544,-5544,3464,4368,4056,-15080
317,490,510,507,15560,-5376,3212,4364,4092,-15068
323,490,511,509,15616,-5456,3212,4316,3992,-15052
328,490,510,507,15564,-5512,3264,4300,4008,-15012
334,490,510,507,15568,-5332,3208,4368,4064,-15204
339,490,511,507,15600,-5524,3156,4468,4040,-14996
346,490,511,509,15588,-5476,3360,4360,4056,-15128
351,490,511,506,15704,-5428,3384,4448,4052,-15052
357,490,512,511,15624,-5468,3264,4296,4036,-15208
362,490,514,512,15572,-5460,3256,4348,4212,-15176
368,489,516,512,15616,-5500,3260,4340,4112,-15224
374,489,518,515,15596,-5480,3268,4400,4116,-15168
379,489,521,516,15648,-5500,3308,4372,4044,-15180
386,489,521,512,15532,-5488,3216,4424,4068,-15200
391,489,523,508,15484,-5448,3204,4348,3996,-15116
397,489,517,507,15520,-5492,3212,4324,4064,-15156
402,489,511,504,15584,-5392,3344,4388,4012,-14948
408,489,506,503,15512,-5376,3244,4348,4144,-15124
413,489,501,502,15604,-5440,3352,4412,4108,-15216
419,489,499,507,15600,-5460,3268,4344,4136,-15076
425,489,501,501,15508,-5412,3356,4280,4088,-15092
431,489,502,501,15624,-5500,3356,4320,4104,-15140
437,489,502,504,15612,-5464,3316,4388,4100,-15136
442,489,502,502,15488,-5452,3276,4380,4168,-15220
448,489,501,503,15556,-5572,3228,4336,4128,-15124
453,489,501,502,15596,-5452,3208,4532,4124,-15032
459,489,502,506,15488,-5456,3236,4336,4188,-15040
464,489,503,504,15528,-5484,3268,4320,4072,-15072
471,489,503,500,15524,-5488,3292,4432,3956,-15148
477,489,504,500,15632,-5440,3148,4384,4120,-15164
482,489,506,500,15592,-5484,3252,4288,4016,-15188
488,489,505,502,15608,-5488,3516,4416,4092,-15148
493,489,500,504,15448,-5512,3516,4400,3988,-15176
499,489,480,503,15688,-5484,3332,4336,4192,-14920
504,489,442,503,15668,-5492,3320,4380,4116,-14948
510,489,427,506,15552,-5408,3420,4352,4036,-15028
517,489,474,513,15712,-5356,3096,4328,4024,-15228
522,489,579,532,15696,-5528,3192,4340,4052,-15140
528,488,726,558,15488,-5480,3248,4348,4136,-15096
533,489,837,576,15516,-5456,3368,4412,4024,-15016
539,489,847,570,15612,-5584,3448,4404,4008,-15176
544,489,757,546,15496,-5468,3276,4356,4096,-15088
550,489,628,512,15584,-5416,3356,4380,4120,-15052
556,488,522,492,15612,-5452,3332,4340,4148,-15132
562,488,462,491,15640,-5500,3368,4344,4092,-15148
568,488,438,488,15508,-5468,3368,4400,4148,-15108
573,488,430,492,15584,-5464,3204,4396,4076,-15100
579,488,431,492,15704,-5448,3188,4352,3972,-15228
584,488,439,495,15576,-5432,3352,4264,4100,-15116
590,488,445,498,15552,-5456,3272,4344,4116,-15212
595,488,448,497,15552,-5436,3372,4364,4096,-15124
602,488,452,496,15484,-5492,3344,4388,4036,-15092
607,488,456,499,15540,-5452,3188,4344,4076,-15120
613,488,459,499,15568,-5412,3268,4320,4132,-15124
619,488,463,501,15600,-5456,3408,4316,4048,-15108
624,488,465,501,15692,-5492,3296,4360,4084,-15108
630,488,467,501,15612,-5440,3416,4344,4084,-15180
635,488,471,498,15536,-5428,3272,4400,4240,-15088
642,488,475,500,15552,-5472,3332,4436,4160,-15124
647,488,478,505,15568,-5448,3296,4432,4236,-15168
653,488,482,505,15592,-5568,3216,4340,4164,-14988
658,488,484,506,15500,-5480,3316,4440,4064,-15056
664,488,486,504,15548,-5440,3304,4372,4144,-15072
670,488,486,506,15548,-5416,3392,4364,4048,-15140
675,488,487,508,15624,-5468,3156,4344,4040,-15176
681,488,491,508,15644,-5520,3156,4404,4012,-15132
687,488,494,509,15604,-5532,3356,4368,3984,-15240
693,488,498,509,15632,-5440,3328,4324,4148,-15116
698,488,500,515,15596,-5504,3484,4356,3928,-15288
704,488,501,513,15584,-5532,3184,4396,4040,-15080
710,488,502,515,15600,-5404,3276,4348,4204,-15100
715,489,504,512,15612,-5484,3280,4308,4096,-15176
721,489,505,510,15612,-5484,3308,4372,4120,-15084
727,489,508,514,15656,-5436,3212,4264,4052,-15076
733,489,511,519,15560,-5516,3292,4304,3984,-14904
738,489,511,516,15580,-5536,3176,4356,4132,-15184
744,489,510,517,15540,-5468,3160,4356,4120,-15112
749,489,510,515,15576,-5568,3204,4448,4132,-15108
755,490,512,515,15612,-5368,3288,4328,4136,-15104
761,490,515,513,15552,-5472,3292,4320,4096,-15108
766,490,514,513,15536,-5532,3244,4332,4088,-15108
773,490,511,513,15592,-5612,3336,4368,4024,-15192
778,490,507,517,15532,-5392,3356,4352,3996,-15136
784,490,503,511,15504,-5404,3348,4432,4000,-15184
789,490,498,511,15592,-5380,3188,4388,4148,-15216
795,490,493,513,15592,-5448,3336,4440,4024,-14964
800,490,492,505,15612,-5504,3196,4384,4088,-15156
806,490,494,504,15524,-5476,3252,4328,4156,-15244
813,490,493,500,15660,-5536,3248,4400,4152,-15280
818,490,492,496,15580,-5472,3136,4364,4176,-15232
824,490,491,497,15580,-5456,3376,4272,4012,-15104
829,490,490,496,15556,-5432,3248,4348,4152,-15136
835,490,491,497,15624,-5376,3176,4372,4016,-15032
840,490,491,499,15612,-5500,3220,4364,4048,-15132
846,490,492,496,15572,-5380,3296,4384,4052,-15048
851,490,496,499,15504,-5436,3416,4260,4056,-15236
858,490,497,499,15608,-5404,3140,4312,4092,-15112
864,490,497,500,15632,-5440,3228,4372,4076,-15056
869,490,497,500,15568,-5468,3080,4412,4088,-15204
875,490,499,499,15548,-5528,3372,4388,4032,-15224
880,490,500,499,15568,-5496,3152,4364,4008,-15140
886,490,501,502,15556,-5480,3300,4420,4032,-15236
891,489,501,505,15572,-5420,3272,4400,4064,-15024
898,489,503,505,15584,-5532,3316,4360,4080,-15120
904,489,504,503,15652,-5472,3412,4364,4080,-15156
909,489,506,504,15632,-5448,3304,4328,4136,-15060
915,489,506,504,15568,-5420,3276,4388,4120,-15072
920,489,507,504,15640,-5444,3220,4340,4168,-14900
926,489,507,504,15612,-5468,3344,4320,4108,-15104
931,489,506,506,15476,-5388,3256,4348,4016,-14988
937,489,507,503,15556,-5440,3368,4304,4228,-15064
943,489,510,503,15500,-5396,3296,4304,4080,-15156
949,489,510,502,15532,-5520,3248,4340,4120,-15416
955,489,510,502,15576,-5572,3144,4268,4084,-15184
960,489,509,504,15592,-5412,3348,4188,4088,-15188
966,489,508,505,15596,-5448,3292,4276,4100,-15244
971,489,508,507,15628,-5464,3316,4316,4116,-15224
977,488,510,511,15544,-5452,3328,4272,3992,-15228
983,488,512,508,15572,-5456,3328,4368,4100,-15092
989,488,514,505,15476,-5460,3248,4344,4124,-14928
994,488,514,505,15612,-5512,3492,4380,4064,-15172
1000,488,513,505,15648,-5496,3284,4428,4112,-15132
1006,488,509,504,15576,-5408,3308,4320,4084,-15120
1011,488,507,505,15620,-5452,3248,4328,4132,-15116
1017,488,508,501,15560,-5476,3184,4364,4076,-15036
1022,488,510,501,15520,-5404,3192,4388,4128,-15176
1029,488,509,506,15596,-5484,3396,4404,4024,-15220
1034,488,508,505,15604,-5488,3164,4404,3996,-15064
1040,488,507,508,15640,-5480,3324,4344,4052,-15136
1045,488,506,509,15516,-5428,3284,4356,4004,-15092
1051,488,505,507,15652,-5440,3348,4384,4044,-15120
1057,488,506,504,15588,-5464,3120,4404,4104,-15120
1062,488,506,506,15584,-5324,3260,4388,4100,-15040
1069,488,507,507,15660,-5420,3288,4336,4176,-15052
1074,488,508,506,15468,-5428,3344,4252,4184,-15176
1080,488,510,509,15556,-5408,3436,4308,4120,-15092
1085,488,509,509,15716,-5496,3240,4208,4172,-15160
1091,488,509,510,15556,-5428,3404,4336,4172,-15076
1096,488,511,508,15544,-5420,3308,4224,4164,-15060
1102,488,509,508,15500,-5456,3316,4408,4160,-14924
1108,487,509,507,15504,-5468,3284,4332,4136,-15280
1114,487,513,510,15640,-5376,3220,4344,4144,-15208
1120,487,518,514,15572,-5420,3488,4404,4160,-15256
1125,487,523,511,15616,-5520,3280,4396,4104,-14972
1131,487,525,513,15572,-5456,3180,4328,4072,-15120
1136,487,523,516,15580,-5540,3104,4304,4220,-15104
1142,487,521,513,15568,-5444,3252,4400,4020,-15168
1148,487,515,507,15544,-5468,3228,4432,4028,-15164
1154,487,509,505,15544,-5480,3212,4196,3928,-15208
1160,487,505,507,15532,-5512,3232,4412,4080,-15040
1165,487,500,500,15504,-5428,3280,4436,4172,-15012
1171,487,500,501,15544,-5528,3360,4300,4128,-15132
1176,487,501,500,15580,-5456,3252,4412,4104,-15032
1182,487,504,499,15592,-5432,3248,4464,4152,-15268
1187,487,505,503,15592,-5452,3240,4416,4200,-15048
1193,487,504,503,15484,-5480,3220,4352,4032,-15172
1200,487,505,502,15544,-5532,3456,4432,4208,-15092
1205,487,505,504,15496,-5420,3372,4372,4032,-15128
1211,487,505,504,15668,-5440,3240,4288,4076,-15144
1216,487,504,505,15528,-5452,3268,4292,4064,-15060
1222,487,503,504,15652,-5408,3232,4220,4056,-15200
1227,487,503,507,15684,-5456,3184,4304,4092,-15096
1233,487,505,512,15560,-5508,3276,4272,4036,-15240
1239,487,505,502,15548,-5488,3300,4328,4044,-15116
1245,487,498,499,15604,-5436,3276,4256,3988,-15172
1251,487,480,496,15524,-5460,3260,4360,3996,-15096
1256,487,446,495,15512,-5464,3404,4332,3988,-15164
1262,487,431,499,15572,-5476,3072,4436,3976,-15224
1267,487,482,517,15532,-5484,3248,4416,4088,-15212
1273,487,589,537,15572,-5548,3148,4392,4240,-15156
1278,487,738,559,15520,-5376,3336,4424,4228,-15172
1285,487,849,573,15652,-5544,3272,4324,4088,-15096
1290,487,869,569,15556,-5504,3460,4480,4380,-15072
1296,487,776,545,15632,-5488,3272,4516,4216,-15220
1302,487,636,512,15592,-5460,3368,4476,4184,-15184
1307,487,523,494,15588,-5356,3172,4348,4180,-15016
1313,487,462,490,15612,-5520,3212,4300,4132,-15036
1318,487,438,494,15592,-5404,3200,4332,4256,-15092
1325,487,432,495,15604,-5484,3364,4256,4012,-15016
1330,487,433,495,15540,-5416,3252,4252,4156,-15224
1336,487,435,495,15564,-5404,3324,4260,4048,-15172
1341,486,436,494,15596,-5500,3172,4360,3996,-15160
1347,486,440,495,15560,-5560,3352,4296,3932,-15072
1353,486,444,495,15520,-5420,3136,4296,4052,-15100
1358,486,450,500,15600,-5504,3248,4204,4032,-15156
1364,486,456,498,15516,-5452,3336,4340,4008,-15272
1370,486,460,501,15644,-5532,3136,4376,4152,-15172
1376,486,463,497,15680,-5420,3424,4308,4000,-15188
1381,486,466,497,15564,-5400,3352,4376,4052,-15032
1387,486,470,500,15588,-5380,3292,4392,4048,-15052
1392,486,472,502,15588,-5436,3200,4368,4076,-15144
1398,487,474,508,15540,-5424,3172,4424,4052,-15248
1404,487,477,509,15572,-5472,3256,4416,4152,-15152
1410,487,479,508,15596,-5420,3296,4380,4188,-15136
1416,487,481,506,15600,-5452,3304,4412,4188,-15084
1421,487,484,512,15516,-5492,3256,4332,4148,-15048
1427,487,486,508,15572,-5396,3320,4444,4112,-15024
1432,487,485,506,15600,-5492,3292,4292,4100,-15160
1438,487,487,505,15660,-5392,3272,4300,4140,-15052
1444,487,489,515,15568,-5560,3036,4272,4000,-15176
1449,488,493,510,15600,-5452,3236,4368,4080,-15032
1456,488,494,509,15640,-5516,3160,4412,4004,-15124
1461,488,496,511,15524,-5392,3196,4248,4088,-15200
1467,488,498,515,15528,-5552,3248,4268,4068,-15236
1472,488,500,515,15548,-5516,3300,4264,4084,-15172
1478,488,500,516,15692,-5492,3372,4460,4228,-15164
1483,488,502,514,15612,-5500,3236,4388,4068,-15124
1489,488,505,511,15444,-5420,3236,4344,4124,-15020
1496,488,507,511,15520,-5456,3420,4488,4200,-15088
1501,489,505,515,15584,-5380,3224,4364,4280,-15064
1507,489,506,514,15696,-5412,3140,4392,4180,-15052
1512,489,508,513,15600,-5432,3192,4320,4240,-15032
1518,489,510,513,15532,-5420,3196,4352,4240,-15176
1523,489,509,511,15596,-5488,3436,4340,4136,-15036
1529,489,508,513,15608,-5496,3268,4412,4064,-15148
1534,489,505,508,15552,-5460,3308,4332,3984,-15096
1541,489,501,504,15560,-5536,3244,4340,4012,-15176
1547,489,497,507,15544,-5560,3400,4332,4104,-15276
1552,489,497,501,15652,-5440,3296,4296,4076,-15088
1558,489,496,499,15612,-5444,3140,4272,4108,-15096
1563,489,495,496,15556,-5444,3248,4348,4092,-14964
1569,488,496,494,15560,-5516,3248,4444,4156,-15220
1574,488,495,493,15632,-5452,3144,4380,4188,-15184
1581,488,496,496,15604,-5384,3228,4348,4244,-15112
1586,488,497,497,15536,-5504,3220,4440,4192,-15204
1592,488,497,496,15604,-5560,3128,4328,4120,-15052
1598,488,498,496,15640,-5536,3208,4284,4224,-14948
1603,488,500,503,15516,-5444,3180,4344,4256,-15148
1609,488,502,501,15588,-5484,3192,4436,4264,-15272
1614,488,502,497,15600,-5352,3236,4372,4168,-15116
1620,487,500,500,15608,-5420,3072,4368,4080,-15088
1626,487,500,497,15568,-5312,3236,4304,4172,-15216
1632,487,502,496,15544,-5520,3140,4416,4104,-15212
1638,487,504,498,15628,-5392,3168,4372,4072,-14984
1643,487,504,499,15556,-5428,3288,4392,4100,-15172
1649,487,505,501,15560,-5468,3348,4300,4052,-15068
1654,487,505,502,15468,-5452,3328,4328,4104,-15036
1660,486,505,505,15564,-5392,3312,4244,3988,-15044
1666,486,505,503,15532,-5476,3324,4348,4044,-15192
1672,486,504,507,15600,-5556,3264,4436,4028,-15204
1677,486,505,503,15504,-5480,3180,4344,4188,-15120
1683,486,506,501,15600,-5408,3320,4344,4076,-15064
1689,486,509,500,15488,-5380,3292,4404,4032,-15096
1694,485,510,500,15548,-5476,3132,4320,4036,-14988
1700,485,510,507,15564,-5460,3404,4380,4052,-15164
1705,485,510,507,15608,-5416,3124,4304,4052,-15152
1712,485,509,503,15560,-5456,3412,4380,4136,-15192
1717,485,507,502,15584,-5376,3272,4308,4048,-15104
1723,485,506,505,15596,-5388,3288,4320,4108,-15124
1728,485,507,507,15516,-5492,3348,4308,4112,-15156
1734,485,508,503,15484,-5392,3340,4436,4036,-15072
1740,484,509,502,15480,-5524,3336,4368,4244,-15008
1745,484,509,503,15532,-5476,3356,4324,4120,-15036
1752,484,509,504,15516,-5448,3324,4388,4256,-15244
1757,484,507,510,15560,-5460,3176,4344,4096,-15172
1763,484,507,507,15604,-5440,3344,4340,4156,-15152
1768,484,507,509,15528,-5432,3264,4344,4124,-15076
1774,484,506,508,15520,-5408,3360,4444,4188,-15012
1780,484,507,501,15532,-5432,3356,4344,4156,-15172
1785,484,507,503,15524,-5464,3316,4452,4088,-15220
1792,484,507,506,15528,-5548,3324,4356,4060,-15084
1797,483,507,502,15692,-5484,3316,4368,4096,-15120
1803,483,507,501,15544,-5504,3240,4368,4180,-15184
1808,483,507,507,15648,-5436,3296,4304,4040,-15168
1814,483,508,505,15560,-5416,3184,4376,4140,-15136
1819,483,508,505,15544,-5416,3340,4348,4068,-14996
1825,483,508,507,15596,-5436,3140,4252,4140,-15084
1831,483,508,513,15552,-5524,3416,4396,4124,-15132
1837,483,509,510,15592,-5496,3232,4344,4184,-15116
1843,483,510,505,15572,-5496,3272,4372,4104,-15084
1848,483,512,505,15680,-5516,3120,4340,4096,-15060
1854,482,512,507,15624,-5516,3240,4348,4136,-15104
1859,482,516,509,15572,-5408,3256,4212,4132,-15120
1865,482,518,513,15572,-5456,3308,4424,4116,-15104
1870,482,522,511,15540,-5464,3360,4312,4052,-15008
1876,482,522,512,15572,-5460,3472,4396,4092,-15092
1883,482,523,513,15636,-5528,3280,4428,4196,-15204
1888,482,518,515,15564,-5408,3360,4368,4100,-15132
1894,482,512,512,15600,-5536,3352,4288,4128,-15104
1899,482,508,503,15696,-5424,3280,4332,4124,-15112
1905,482,502,498,15508,-5476,3348,4504,4136,-15192
1910,481,500,500,15496,-5428,3344,4392,4136,-15292
1916,481,501,504,15600,-5452,3236,4396,4164,-15124
1922,481,501,500,15580,-5464,3360,4264,4156,-15128
1928,481,503,499,15572,-5512,3184,4292,4052,-15000
1934,481,503,498,15476,-5500,3160,4340,4124,-15192
1939,481,500,502,15516,-5464,3376,4324,4156,-15180
1945,481,501,500,15572,-5612,3324,4300,4156,-15152
1950,481,503,499,15592,-5380,3336,4544,4124,-14884
1956,481,503,501,15592,-5516,3204,4412,4140,-15044
1961,480,504,502,15528,-5488,3236,4468,4188,-15120
1968,480,504,506,15556,-5340,3344,4256,4036,-14996
1973,480,504,504,15600,-5428,3240,4380,4160,-15224
1979,480,505,502,15584,-5476,3328,4360,4096,-15188
1985,480,502,502,15564,-5476,3236,4404,4104,-15060
1990,480,487,505,15560,-5488,3136,4296,4092,-15108
1996,480,450,499,15596,-5512,3280,4380,4016,-15220
2001,480,430,497,15492,-5520,3152,4356,4128,-15192
2008,480,464,508,15480,-5504,3356,4420,4084,-15036
2013,480,558,529,15652,-5484,3356,4328,4196,-15076
2019,480,689,557,15584,-5528,3380,4208,4196,-15216
2024,480,810,577,15580,-5484,3180,4352,4240,-15328
2030,479,846,579,15480,-5464,3208,4412,4180,-15252
2036,479,781,559,15548,-5436,3256,4268,4208,-15132
2041,480,658,521,15532,-5464,3308,4344,4088,-15060
2048,479,544,494,15528,-5584,3420,4384,4168,-15096
2053,479,475,486,15592,-5384,3224,4340,4152,-15060
2059,479,444,486,15632,-5556,3296,4384,4240,-15184
2064,479,434,489,15596,-5588,3312,4368,4120,-15208
2070,479,434,495,15556,-5452,3380,4308,4200,-15140
2075,479,438,496,15576,-5484,3384,4364,4188,-15048
2081,479,442,494,15532,-5436,3320,4424,4196,-15100
2087,479,446,495,15564,-5448,3180,4320,4172,-15176
2093,479,448,496,15544,-5368,3168,4348,4140,-15060
2099,479,451,494,15540,-5448,3316,4400,4156,-15220
2104,479,455,495,15608,-5520,3332,4416,4192,-15148
2110,479,459,497,15576,-5368,3224,4408,4144,-15160
2115,479,462,503,15548,-5476,3232,4368,4132,-15268
2121,479,464,509,15580,-5520,3216,4380,4160,-15224
2126,479,467,505,15552,-5484,3232,4412,4100,-15212
2132,479,472,503,15556,-5520,3304,4392,4092,-15244
2139,479,475,501,15540,-5404,3336,4332,3992,-15136
2144,479,476,503,15496,-5504,3264,4392,4184,-15132
2150,479,476,506,15608,-5476,3512,4336,4216,-14984
2155,479,478,507,15548,-5492,3256,4332,4320,-15128
2161,480,482,513,15604,-5400,3380,4420,4336,-15188
2166,480,487,510,15572,-5388,3212,4304,4200,-15080
2172,480,490,512,15640,-5456,3220,4344,4132,-14992
2178,480,491,512,15644,-5464,3260,4336,4296,-15124
2184,480,494,510,15536,-5484,3276,4356,4252,-15116
2190,480,496,510,15516,-5440,3228,4468,4140,-15220
2195,480,497,514,15624,-5444,3276,4300,4104,-14992
2201,481,498,518,15564,-5376,3320,4304,4116,-15196
2206,481,500,516,15624,-5460,3332,4392,4212,-15148
2212,481,505,513,15484,-5484,3340,4248,4184,-15208
2217,481,506,513,15564,-5444,3308,4384,4252,-15244
2224,481,509,517,15552,-5528,3272,4340,4148,-15148
2230,481,511,513,15496,-5524,3228,4404,4120,-15200
2235,481,511,512,15608,-5480,3432,4388,4128,-15092
2241,481,510,514,15500,-5472,3312,4308,4116,-15172
2246,481,509,518,15608,-5472,3132,4372,4068,-15192
2252,481,509,515,15604,-5436,3256,4372,4056,-15160
2257,481,509,513,15524,-5448,3344,4396,4108,-15116
2264,481,509,512,15572,-5452,3312,4352,4028,-14960
2269,481,508,507,15616,-5464,3148,4316,4156,-15080
2275,481,506,507,15664,-5580,3336,4380,4136,-15092
2281,481,502,504,15560,-5368,3304,4444,4140,-15228
2286,481,500,503,15460,-5500,3216,4348,4192,-15208
2292,481,497,505,15564,-5424,3188,4468,4224,-15240
2297,481,495,503,15556,-5520,3296,4376,4192,-15328
2304,481,491,501,15608,-5484,3204,4324,4156,-15188
2309,481,490,499,15452,-5488,3236,4220,4200,-15120
2315,481,490,499,15464,-5492,3356,4264,4208,-15112
2320,481,492,497,15600,-5436,3356,4204,4116,-15296
2326,481,492,496,15624,-5456,3312,4320,4140,-15088
2332,480,492,498,15660,-5444,3220,4352,4232,-15204
2337,480,492,497,15668,-5432,3364,4336,4208,-14976
2343,480,492,499,15592,-5440,3304,4372,4268,-15148
2349,480,491,502,15604,-5412,3276,4316,4160,-15040
2355,480,493,499,15580,-5464,3172,4268,4228,-15064
2360,480,495,498,15548,-5464,3188,4260,4208,-15080
2366,480,496,497,15652,-5460,3292,4356,4112,-15104
2371,480,497,498,15504,-5448,3236,4368,4120,-15012
2377,480,501,500,15516,-5500,3284,4404,4160,-15104
2383,480,504,500,15620,-5464,3220,4512,4176,-15056
2388,479,505,501,15536,-5352,3084,4332,4132,-15148
2395,479,506,501,15656,-5536,3208,4396,4156,-15220
2400,479,505,503,15660,-5444,3380,4344,4056,-15184
2406,479,506,503,15592,-5396,3316,4452,4116,-15228
2411,479,508,504,15620,-5440,3416,4368,4188,-15176
2417,479,507,507,15636,-5408,3372,4336,4176,-15136
2422,478,506,508,15388,-5552,3332,4276,4120,-15080
2428,478,506,508,15536,-5484,3208,4448,4080,-15140
2435,478,508,504,15564,-5440,3284,4248,4116,-15136
2440,478,509,508,15648,-5532,3248,4352,4196,-15104
2446,478,508,508,15636,-5516,3140,4296,4312,-15284
2451,478,508,505,15564,-5448,3212,4264,4236,-15168
2457,478,509,507,15572,-5480,3368,4368,4096,-15000
2462,478,509,508,15608,-5488,3296,4276,4236,-15072
2468,478,509,508,15600,-5428,3300,4280,4120,-15216
2475,477,507,504,15644,-5508,3192,4332,4236,-15148
2480,477,508,503,15568,-5596,3364,4332,4232,-15120
2486,477,510,506,15536,-5524,3340,4352,4156,-15240
2491,477,510,505,15576,-5508,3300,4344,4260,-15224
2497,477,511,507,15624,-5508,3184,4472,4120,-14928
2502,477,510,505,15600,-5488,3244,4372,4088,-15136
2508,477,509,508,15612,-5464,3288,4344,4176,-15116
2513,477,510,507,15664,-5404,3288,4376,4192,-15092
2520,477,509,507,15528,-5464,3204,4412,4104,-15020
2526,476,507,506,15624,-5552,3184,4372,4156,-15144
2531,476,507,506,15572,-5496,3208,4252,4080,-14996
2537,476,508,505,15616,-5404,3312,4304,4144,-15164
2542,476,508,505,15656,-5444,3228,4436,4116,-15212
2548,476,508,508,15492,-5464,3276,4372,4240,-15048
2553,476,508,511,15580,-5412,3332,4320,4092,-15148
2560,476,509,510,15548,-5416,3220,4248,4156,-14996
2565,476,511,515,15552,-5472,3368,4288,4108,-15176
2571,476,511,509,15420,-5420,3448,4388,4148,-15224
2577,476,513,509,15604,-5444,3260,4336,4112,-15128
2582,476,514,512,15520,-5472,3268,4324,4168,-15240
2588,476,515,515,15560,-5436,3288,4316,4236,-15216
2593,476,516,517,15500,-5424,3348,4352,4196,-15104
2599,476,518,518,15584,-5500,3440,4288,4136,-15224
2605,476,522,517,15540,-5536,3296,4340,4168,-15048
2611,476,525,516,15584,-5504,3288,4300,4204,-15168
2617,476,523,516,15644,-5508,3336,4280,4196,-15148
2622,476,522,517,15608,-5416,3180,4436,4240,-15136
2628,476,517,515,15564,-5416,3312,4308,4204,-15036
2633,476,513,508,15632,-5488,3408,4448,4132,-15236
2639,476,509,505,15612,-5472,3224,4368,4292,-15020
2644,476,504,506,15600,-5572,3168,4292,4292,-15020
2651,476,504,506,15452,-5556,3204,4216,4256,-15100
2656,476,505,503,15420,-5528,3336,4368,4132,-15024
2662,475,506,502,15568,-5412,3140,4264,4132,-15224
2668,476,506,506,15512,-5508,3304,4356,4136,-15148
2673,476,506,507,15512,-5424,3404,4344,4348,-15276
2679,475,506,503,15528,-5448,3320,4388,4232,-15220
2684,475,506,502,15592,-5512,3340,4384,4252,-15096
2691,475,506,505,15660,-5508,3200,4384,4224,-14896
2696,475,507,508,15508,-5448,3320,4340,4252,-14960
2702,475,507,510,15600,-5484,3220,4300,4192,-15220
2707,475,508,509,15536,-5488,3108,4344,4256,-15152
2713,475,509,512,15516,-5452,3416,4476,4200,-15096
2719,475,506,506,15584,-5524,3312,4264,4088,-15240
2724,475,498,507,15544,-5436,3320,4276,4244,-15200
2731,475,475,504,15624,-5448,3256,4232,4212,-15160
2736,475,437,499,15572,-5484,3272,4232,4156,-15364
2742,475,431,504,15612,-5424,3260,4312,4232,-15160
2747,475,490,521,15584,-5460,3272,4296,4200,-15140
2753,475,598,546,15596,-5340,3292,4252,4228,-15260
2758,475,742,570,15532,-5404,3148,4260,4188,-15148
2764,475,836,583,15556,-5436,3244,4296,4256,-15248
2770,475,833,572,15548,-5552,3344,4332,4144,-15184
2776,475,737,543,15580,-5496,3324,4396,4228,-15032
2782,475,611,509,15532,-5488,3252,4296,4168,-15208
2787,475,517,496,15452,-5392,3212,4376,4196,-15140
2793,475,466,491,15476,-5428,3276,4316,4164,-15172
2798,475,446,498,15528,-5552,3176,4248,4176,-15080
2804,475,439,496,15516,-5464,3244,4404,4144,-15188
2809,475,440,492,15548,-5488,3344,4312,4160,-15164
2816,475,443,498,15560,-5488,3416,4344,4204,-15072
2822,475,446,501,15572,-5392,3244,4228,4256,-15236
2827,475,448,497,15556,-5472,3372,4280,4112,-15224
2833,475,451,497,15548,-5464,3316,4272,4264,-15140
2838,475,455,505,15508,-5476,3216,4312,4296,-15108
2844,475,459,508,15484,-5552,3372,4352,4248,-15012
2849,474,463,507,15668,-5532,3248,4304,4160,-15232
2855,475,465,504,15592,-5460,3400,4368,4268,-15216
2862,474,469,507,15464,-5508,3244,4276,4252,-15084
2867,474,475,508,15576,-5460,3464,4316,4272,-15112
2873,475,480,506,15556,-5452,3372,4344,4220,-15248
2878,474,483,508,15608,-5428,3368,4336,4236,-15316
2884,474,485,512,15564,-5360,3192,4364,4192,-15092
2889,474,485,514,15568,-5500,3168,4352,4228,-15156
2895,475,487,505,15540,-5452,3400,4356,4216,-15308
2900,475,490,507,15548,-5496,3228,4244,4160,-15140
2907,475,493,515,15560,-5444,3192,4276,4228,-15184
2913,475,495,511,15612,-5412,3196,4380,4120,-15116
2918,475,498,518,15484,-5440,3136,4144,4152,-15240
2924,475,499,511,15556,-5536,3268,4284,4184,-15224
2929,475,499,512,15524,-5484,3228,4224,4096,-15064
2935,475,501,514,15548,-5576,3204,4168,4224,-15288
2940,475,502,520,15592,-5480,3224,4240,4188,-15248
2947,475,503,521,15612,-5520,3252,4348,4196,-15176
2952,475,506,509,15540,-5376,3448,4404,4268,-15116
2958,474,509,508,15548,-5488,3264,4224,4244,-15120
2964,474,513,515,15564,-5520,3312,4556,4148,-15248
2969,474,513,516,15676,-5416,3276,4304,4236,-15112
2975,474,513,518,15516,-5480,3324,4388,4172,-15148
2980,474,513,518,15560,-5500,3168,4496,4264,-15080
2987,474,511,515,15584,-5536,3168,4444,4148,-15176
2992,474,511,517,15580,-5488,3308,4344,4240,-15200
2998,474,512,528,15472,-5492,3196,4524,4208,-15228
3003,474,510,526,15680,-5436,3276,4396,4220,-15224
3009,474,508,517,15548,-5500,3180,4448,4172,-15196
3015,474,506,504,15524,-5484,3292,4176,3992,-15172
3020,474,503,507,15596,-5448,3332,4224,4156,-15088
3026,474,499,510,15576,-5480,3256,4256,4104,-15220
3032,474,496,505,15556,-5508,3100,4192,4240,-15160
3038,474,494,503,15616,-5480,3172,4276,4076,-15292
3043,474,493,500,15480,-5456,3408,4284,4192,-15148
3049,474,493,502,15612,-5436,3300,4208,4244,-15292
3055,474,495,502,15544,-5600,3388,4340,4216,-15040
3060,474,497,507,15568,-5488,3336,4324,4272,-15104
3066,474,496,507,15592,-5548,3324,4236,4252,-15076
3072,474,495,505,15676,-5524,3168,4216,4256,-15048
3078,474,495,504,15668,-5468,3348,4276,4252,-15096
3083,474,497,510,15652,-5436,3240,4236,4280,-15196
3089,474,499,501,15580,-5504,3352,4256,4288,-15192
3094,474,498,495,15552,-5416,3172,4312,4216,-15080
3100,474,500,495,15540,-5556,3224,4308,4308,-15164
3106,474,504,499,15584,-5452,3388,4256,4236,-15104
3111,474,506,503,15564,-5452,3264,4344,4236,-15152
3118,474,506,509,15628,-5484,3220,4288,4112,-15200
3123,474,504,508,15548,-5532,3472,4352,4128,-15152
3129,474,505,514,15548,-5532,3148,4244,4240,-15084
3134,474,505,507,15560,-5380,3204,4380,4188,-15192
3140,474,507,503,15576,-5416,3368,4228,4232,-15052
3145,474,508,505,15552,-5488,3348,4304,4160,-15176
3151,474,509,507,15600,-5452,3356,4304,4244,-15084
3158,474,508,504,15600,-5508,3284,4316,4208,-15048
3163,474,508,503,15600,-5448,3236,4372,4060,-15312
3169,474,506,504,15588,-5452,3252,4264,4200,-15232
3174,474,507,506,15628,-5476,3276,4244,4120,-14904
3180,474,508,510,15616,-5600,3180,4324,4080,-15204
3185,474,508,510,15484,-5584,3252,4304,4072,-15140
3191,474,510,520,15592,-5460,3300,4212,4048,-15208
3196,474,509,515,15532,-5460,3208,4264,4112,-15064
3203,474,509,505,15504,-5500,3176,4272,4008,-15140
3209,474,510,503,15556,-5404,3140,4256,4124,-15076
3214,474,509,502,15608,-5468,3328,4252,4136,-15232
3220,474,508,504,15656,-5336,3256,4404,4200,-15148
3225,474,507,505,15604,-5376,3336,4412,4136,-15124
3231,474,509,505,15588,-5436,3312,4320,4120,-15164
3236,474,509,503,15564,-5448,3232,4344,4204,-15172
3243,474,510,511,15556,-5380,3188,4372,4176,-14932
3248,474,510,511,15644,-5400,3232,4232,4224,-15272
3254,474,510,507,15580,-5448,3328,4320,4120,-15092
3260,474,509,513,15632,-5448,3256,4392,4188,-15164
3265,474,507,504,15500,-5568,3268,4464,4228,-15232
3271,474,505,501,15592,-5464,3360,4332,4208,-15104
3276,474,505,504,15520,-5400,3324,4224,4172,-15008
3282,474,508,508,15600,-5528,3228,4308,4148,-15152
3288,474,509,511,15580,-5564,3088,4304,4156,-15176
3294,474,511,507,15704,-5452,3320,4256,4232,-15200
3300,474,512,508,15524,-5444,3232,4272,4180,-15008
3305,474,510,511,15576,-5452,3208,4184,4148,-15228
3311,474,509,515,15580,-5584,3180,4236,4052,-15104
3316,474,510,512,15544,-5628,3188,4348,4128,-15096
3322,474,512,513,15492,-5476,3304,4432,4188,-15324
3328,474,515,512,15544,-5328,3212,4364,4172,-15104
3334,474,519,515,15760,-5504,3188,4264,4072,-15344
3339,474,523,513,15624,-5476,3068,4468,4064,-15644
3345,474,522,514,15676,-5408,3352,4424,4176,-15180
3351,474,523,518,15420,-5132,3276,4276,3984,-15288
3356,474,517,516,15572,-5392,3312,4284,4084,-15340
3362,474,512,509,15744,-5580,3408,4404,4120,-15116
3367,475,509,508,15716,-5556,3292,4284,4224,-15164
3374,475,504,511,15480,-5404,3324,4336,4168,-15044
3379,475,501,503,15496,-5540,3664,4364,4196,-14948
3385,475,500,503,15504,-5516,3232,4296,4284,-14880
3390,475,499,502,15664,-5520,2884,4220,4312,-14920
3396,475,500,505,15584,-5516,3348,4248,4192,-14848
3402,475,502,504,15512,-5356,3244,4032,4284,-15036
3407,475,502,499,15632,-5492,3272,4148,4168,-14992
3414,475,502,500,15688,-5500,3112,4232,4224,-15104
3419,475,502,502,15660,-5440,3168,4272,4160,-15272
3425,475,503,505,15616,-5348,3368,4264,4272,-15324
3430,475,505,505,15544,-5328,3332,4304,4092,-15332
3436,475,507,508,15644,-5556,3204,4296,4256,-15128
3441,475,506,504,15676,-5424,3360,4292,4152,-15192
3447,475,503,505,15504,-5488,3364,4180,4176,-15368
3453,475,496,501,15392,-5408,3316,4288,4276,-15112
3459,475,473,499,15648,-5492,3260,4248,4324,-15244
3465,475,436,498,15680,-5504,3208,4216,4168,-15112
3470,475,427,502,15636,-5488,3132,4240,4176,-15164
3476,475,484,515,15548,-5400,3152,4348,4120,-15164
3481,475,591,537,15524,-5428,3252,4364,4096,-15136
3487,475,734,565,15536,-5484,3324,4320,4184,-15240
3492,475,830,579,15616,-5408,3252,4236,4100,-15168
3499,475,830,570,15604,-5492,3300,4400,4068,-15040
3505,475,736,540,15584,-5440,3148,4348,4092,-15108
3510,475,611,505,15568,-5552,3252,4264,4076,-15200
3516,475,515,487,15656,-5476,3208,4232,4104,-15168
3521,475,463,485,15468,-5520,3164,4292,4132,-15192
3527,475,442,487,15448,-5600,3288,4192,4060,-15160
3532,475,434,489,15584,-5560,3304,4264,4100,-15168
3538,475,435,496,15604,-5476,3292,4224,4016,-15148
3545,475,438,492,15592,-5520,3464,4220,4032,-15184
3550,475,440,492,15624,-5536,3248,4264,4036,-15244
3556,475,443,491,15624,-5500,3244,4344,4132,-15128
3561,475,447,490,15544,-5552,3196,4272,4092,-15160
3567,475,453,494,15548,-5452,3296,4380,4080,-15128
3572,475,456,497,15568,-5476,3248,4376,4032,-14988
3578,474,460,498,15632,-5464,3184,4328,4008,-15064
3584,474,465,503,15468,-5484,3408,4324,4064,-15040
3590,474,466,499,15436,-5424,3204,4332,4116,-15088
3596,474,469,496,15600,-5464,3212,4376,4064,-15264
3601,474,474,500,15628,-5452,3068,4328,4084,-15192
3607,474,477,503,15656,-5420,3352,4240,4044,-15028
3612,474,479,503,15492,-5552,3348,4340,4192,-15348
3618,474,481,503,15572,-5520,3292,4180,4172,-15116
3623,474,483,501,15484,-5380,3364,4188,4136,-15108
3630,474,486,503,15560,-5500,3316,4268,4176,-15148
3635,474,487,506,15576,-5428,3308,4228,4092,-15120
3641,474,488,505,15560,-5464,3336,4284,4208,-15028
3647,474,490,502,15636,-5468,3256,4304,4104,-15056
3652,474,494,510,15556,-5516,3348,4236,4284,-15276
3658,474,497,511,15524,-5492,3260,4296,4148,-15172
3663,474,498,507,15584,-5516,3400,4176,4196,-15448
3670,474,498,502,15616,-5500,3256,4344,4076,-15112
3675,474,499,505,15464,-5544,3436,4256,4224,-15184
3681,474,500,509,15528,-5448,3320,4264,4088,-15148
3687,474,503,511,15600,-5452,3232,4244,4240,-15276
3692,474,506,507,15532,-5500,3280,4336,4124,-15328
3698,474,507,507,15548,-5540,3312,4316,4300,-15092
3703,474,506,510,15564,-5556,3240,4352,4232,-15132
3709,474,505,513,15548,-5484,3248,4320,4152,-15132
3715,474,506,510,15608,-5548,3236,4412,4208,-15052
3721,474,507,510,15544,-5448,3164,4380,4228,-15032
3726,474,507,510,15560,-5488,3332,4300,4240,-15192
3732,473,507,509,15600,-5492,3384,4320,4048,-15084
3738,474,505,509,15568,-5476,3336,4360,4136,-15132
3743,474,500,506,15556,-5492,3224,4500,4168,-15280
3749,474,496,502,15564,-5628,3284,4380,4256,-15124
3755,474,492,497,15560,-5496,3364,4356,4168,-15236
3761,474,489,498,15488,-5460,3200,4296,4092,-15236
3766,474,487,497,15596,-5416,3348,4192,4120,-15192
3772,474,488,497,15616,-5484,3228,4268,4176,-15288
3777,474,487,494,15512,-5464,3192,4268,4088,-15132
3783,474,488,495,15548,-5420,3232,4156,4180,-15128
3789,474,488,494,15592,-5508,3232,4208,4132,-15076
3794,474,490,493,15548,-5572,3452,4212,4212,-15140
3801,474,490,491,15600,-5340,3300,4280,4160,-15016
3806,474,493,492,15564,-5388,3376,4268,4244,-15084
3812,474,494,495,15560,-5436,3324,4292,4188,-15212
3817,474,493,495,15508,-5452,3080,4216,4152,-15204
3823,474,495,496,15556,-5392,3204,4340,4228,-15128
3829,474,498,497,15472,-5452,3300,4292,4168,-15184
3834,474,498,496,15532,-5436,3468,4340,4160,-15172
3841,474,499,498,15640,-5528,3240,4436,4104,-15148
3846,474,500,498,15548,-5516,3136,4284,4132,-15180
3852,474,501,499,15584,-5424,3268,4476,4128,-15064
3857,474,499,501,15500,-5512,3188,4296,4100,-15160
3863,474,499,500,15504,-5460,3336,4276,4036,-15208
3868,474,502,498,15540,-5440,3300,4272,4060,-15036
3874,474,505,499,15540,-5476,3108,4312,4184,-15180
3880,474,507,501,15632,-5424,3288,4296,4164,-15160
3886,474,506,503,15492,-5460,3364,4272,4120,-15268
3892,474,506,498,15508,-5396,3136,4364,4032,-15176
3897,474,505,499,15580,-5464,3204,4364,4172,-15132
3903,474,505,501,15632,-5556,3232,4312,4052,-15108
3908,474,505,503,15504,-5560,3352,4388,4136,-15176
3914,474,506,505,15488,-5472,3400,4380,4004,-15096
3919,474,508,501,15536,-5400,3356,4308,4216,-14904
3926,474,507,498,15612,-5440,3196,4368,4088,-15140
3932,474,506,499,15496,-5564,3312,4256,4024,-15092
3937,474,506,498,15584,-5368,3168,4308,4128,-15108
3943,474,507,499,15568,-5420,3196,4360,4096,-15276
3948,474,507,499,15548,-5476,3092,4272,4044,-15048
3954,474,505,500,15568,-5520,3336,4212,4076,-15212
3959,474,505,502,15632,-5428,3352,4264,4088,-15156
3965,473,505,499,15592,-5444,3428,4260,4192,-15160
3972,473,506,499,15504,-5500,3400,4276,4180,-15136
3977,473,505,501,15600,-5528,3204,4364,4128,-15180
3983,473,506,500,15664,-5432,3300,4272,4136,-15044
3988,473,507,499,15668,-5444,3240,4324,4188,-15132
3994,473,506,502,15628,-5484,3272,4264,4228,-15164
3999,473,506,504,15604,-5440,3316,4384,4120,-15176
4005,473,507,501,15500,-5544,3248,4196,4184,-15292
4011,473,508,500,15496,-5472,3212,4352,4100,-15192
4017,473,510,503,15524,-5536,3292,4312,4156,-15132
4023,473,510,505,15560,-5472,3360,4340,4040,-15156
4028,473,510,503,15520,-5520,3268,4396,4080,-15160
4034,473,511,502,15628,-5516,3216,4284,4132,-15136
4039,473,510,503,15556,-5432,3196,4364,4124,-15084
4045,473,512,505,15608,-5544,3324,4216,4160,-15144
4050,473,516,505,15584,-5536,3440,4256,4168,-15080
4057,473,520,510,15608,-5408,3248,4248,4068,-15148
4062,473,521,508,15604,-5464,3236,4260,4160,-15240
4068,473,520,508,15524,-5388,3224,4324,4108,-15132
4074,473,514,508,15508,-5404,3232,4352,4096,-15136
4079,473,508,503,15568,-5444,3396,4392,4168,-15216
4085,473,506,497,15584,-5544,3288,4240,4148,-15104
4090,473,503,495,15532,-5500,3376,4284,4116,-15060
4097,473,500,497,15576,-5472,3328,4244,4176,-15176
4102,473,500,494,15572,-5456,3328,4300,4164,-15096
4108,473,501,494,15576,-5408,3228,4236,4076,-15040
4113,473,502,497,15568,-5500,3116,4236,4156,-15160
4119,473,501,499,15644,-5484,3288,4376,4112,-15132
4125,473,499,498,15544,-5508,3280,4284,4204,-15104
4130,473,499,495,15576,-5436,3240,4392,4188,-15104
4136,473,499,494,15616,-5508,3288,4292,4136,-15136
4142,473,501,496,15452,-5440,3220,4364,4144,-15300
4148,473,502,495,15544,-5448,3296,4388,4132,-15320
4153,473,503,499,15536,-5436,3140,4264,4104,-15164
4159,473,505,499,15496,-5496,3432,4344,4068,-15164
4164,473,505,496,15556,-5428,3344,4212,4136,-15220
4170,473,496,494,15528,-5452,3256,4360,4184,-15092
4176,473,471,492,15608,-5476,3244,4224,4080,-15148
4182,473,435,494,15552,-5464,3380,4324,4072,-15280
4188,473,430,503,15604,-5492,3340,4280,4152,-15144
4193,473,493,515,15536,-5436,3384,4248,4148,-15264
4199,473,603,540,15568,-5464,3236,4308,4080,-15176
4204,473,748,559,15640,-5452,3352,4324,4072,-15168
4210,474,836,574,15596,-5444,3340,4328,4104,-15092
4215,474,826,564,15524,-5544,3268,4316,4052,-15120
4221,474,725,531,15548,-5492,3412,4304,4200,-15252
4228,474,598,497,15544,-5492,3360,4268,4216,-15036
4233,474,506,489,15540,-5476,3264,4392,4208,-15252
4239,474,457,485,15572,-5432,3272,4276,4072,-15212
4244,474,439,486,15544,-5552,3116,4284,4116,-15048
4250,474,435,490,15692,-5484,3252,4264,4084,-15292
4255,474,437,490,15592,-5528,3228,4336,4100,-15224
4261,474,441,489,15584,-5472,3348,4328,4132,-15164
4268,474,442,487,15600,-5416,3220,4260,4176,-15248
4273,474,445,491,15636,-5476,3144,4264,4184,-15408
4279,474,448,493,15528,-5504,3316,4268,4152,-15132
4284,474,453,493,15540,-5476,3156,4260,4136,-15148
4290,474,458,498,15616,-5424,3312,4172,4052,-15260
4295,474,462,500,15668,-5368,3152,4296,4048,-15128
4301,474,465,498,15532,-5576,3224,4268,4096,-15044
4306,474,467,499,15640,-5544,3212,4280,4032,-15180
4313,474,471,495,15616,-5356,3304,4312,4116,-15304
4319,474,473,497,15580,-5496,3212,4448,4128,-15128
4324,474,475,502,15528,-5424,3408,4428,4116,-15316
4330,474,479,503,15504,-5436,3276,4332,4092,-15088
4335,474,481,502,15464,-5508,3456,4248,4176,-15220
4341,474,483,501,15588,-5364,3396,4388,4136,-15092
4346,474,485,501,15528,-5444,3444,4372,4084,-15060
4353,474,488,505,15600,-5448,3268,4284,4180,-15260
4358,474,489,507,15520,-5408,3268,4288,4084,-15212
4364,474,490,510,15572,-5480,3288,4248,3996,-15280
4370,474,492,507,15520,-5476,3228,4324,4136,-15140
4375,474,497,509,15564,-5504,3244,4272,4080,-15240
4381,475,500,512,15556,-5552,3292,4344,4148,-15224
4386,475,501,508,15584,-5460,3308,4404,4124,-15336
4392,475,501,507,15576,-5524,3348,4360,4048,-15312
4398,475,501,509,15600,-5428,3324,4412,4104,-15148
4404,475,504,509,15496,-5376,3280,4292,4100,-15104
4409,475,507,508,15652,-5512,3420,4352,4012,-15112
4415,475,510,510,15592,-5448,3260,4336,4140,-15176
4421,475,509,512,15600,-5376,3276,4412,4260,-15172
4426,475,510,515,15560,-5412,3284,4212,4204,-15120
4432,475,509,509,15564,-5392,3248,4308,4096,-15132
4438,475,509,508,15580,-5340,3120,4332,4164,-15108
4444,475,510,507,15632,-5464,3272,4252,4136,-15128
4449,476,509,507,15528,-5352,3248,4256,4084,-15264
4455,476,507,508,15564,-5548,3312,4336,4096,-15072
4461,476,505,506,15540,-5472,3264,4368,4100,-15088
4466,476,502,503,15452,-5564,3380,4332,4008,-15168
4472,476,498,503,15516,-5452,3192,4376,4176,-14980
4477,476,494,501,15512,-5432,3408,4284,4092,-15184
4484,476,494,498,15620,-5420,3296,4252,4140,-15292
4489,476,492,498,15652,-5456,3128,4308,4192,-15044
4495,476,491,497,15624,-5440,3224,4312,4144,-15156
4500,476,491,495,15556,-5456,3268,4264,4172,-15124
4506,476,492,493,15440,-5460,3168,4356,4288,-14892
4512,476,492,494,15600,-5400,3200,4348,4260,-15188
4517,476,493,496,15596,-5420,3220,4336,4172,-15136
4524,476,494,497,15628,-5468,3304,4248,4128,-15236
4529,476,496,497,15580,-5528,3264,4204,4164,-15140
4535,476,498,497,15612,-5532,3220,4288,4048,-15228
4540,476,498,499,15544,-5400,3368,4348,4088,-15208
4546,477,498,501,15512,-5340,3224,4252,4088,-15120
4551,477,500,502,15532,-5512,3172,4320,4136,-15232
4557,477,502,503,15588,-5444,3344,4216,4084,-15068
4563,477,503,504,15644,-5508,3412,4396,4024,-15048
4569,477,503,499,15500,-5416,3284,4224,4068,-15216
4575,477,504,499,15556,-5608,3328,4340,4060,-15264
4580,477,504,504,15548,-5656,3164,4368,4084,-15104
4586,477,505,505,15512,-5532,3348,4332,4180,-15076
4591,477,506,505,15580,-5444,3356,4308,4184,-15200
4597,477,507,503,15592,-5420,3308,4432,4036,-15048
4602,477,507,504,15708,-5436,3180,4332,4128,-15196
4609,477,506,505,15532,-5392,3296,4284,4184,-15160
4615,477,507,504,15532,-5500,3188,4472,4080,-15300
4620,478,507,508,15516,-5528,3312,4292,4132,-15160
4626,478,509,504,15564,-5608,3248,4368,4068,-14988
4631,478,511,504,15520,-5436,3316,4284,4192,-15164
4637,478,509,504,15556,-5512,3232,4180,4100,-15276
4642,478,506,504,15548,-5552,3292,4292,4104,-15200
4648,478,507,505,15488,-5452,3228,4260,4208,-15156
4655,478,509,509,15484,-5480,3272,4372,4144,-15032
4660,478,509,506,15504,-5524,3288,4388,4196,-15252
4666,478,507,504,15624,-5540,3188,4252,4160,-15208
4671,478,507,503,15584,-5508,3356,4316,4160,-15184
4677,479,506,504,15596,-5448,3292,4332,4156,-15204
4682,479,507,510,15596,-5448,3316,4264,4156,-15032
4688,479,507,508,15636,-5520,3184,4296,4144,-15176
4694,479,507,503,15576,-5572,3192,4352,4160,-15140
4700,479,506,506,15496,-5428,3468,4332,4056,-15200
4706,479,506,504,15556,-5448,3264,4316,4136,-15264
4711,479,508,501,15520,-5500,3360,4296,4100,-15224
4717,479,510,506,15564,-5476,3328,4344,4140,-15196
4722,479,509,505,15560,-5492,3248,4352,4112,-15232
4728,479,507,505,15552,-5552,3296,4396,4088,-15240
4733,479,506,503,15680,-5472,3196,4344,4176,-15108
4740,479,507,507,15640,-5496,3144,4372,4156,-15156
4745,479,508,508,15460,-5496,3332,4272,4176,-15264
4751,479,509,504,15600,-5504,3292,4312,4156,-15120
4757,479,511,510,15580,-5436,3248,4352,4132,-15064
4762,479,512,510,15552,-5488,3292,4236,4116,-15080
4768,479,513,509,15556,-5500,3196,4384,4100,-15200
4773,479,514,509,15592,-5544,3132,4268,4072,-15108
4780,480,513,511,15508,-5456,3276,4344,4020,-15184
4785,480,514,517,15560,-5484,3348,4236,4232,-15192
4791,480,515,516,15624,-5512,3148,4280,4188,-15084
4796,480,521,514,15556,-5472,3228,4320,4200,-15160
4802,480,522,516,15592,-5516,3336,4372,4132,-15100
4808,480,523,516,15632,-5448,3324,4332,4020,-15064
4813,480,521,511,15588,-5504,3316,4352,4116,-15136
4819,480,515,511,15504,-5520,3216,4312,4212,-15196
4825,480,510,509,15620,-5472,3272,4308,4140,-15292
4831,480,505,501,15580,-5400,3204,4280,4120,-15216
4836,480,503,500,15556,-5516,3340,4392,4164,-15176
4842,480,503,498,15512,-5436,3324,4240,4072,-15172
4847,480,503,501,15560,-5416,3292,4412,4168,-15256
4853,480,503,503,15536,-5440,3120,4248,4104,-15092
4859,480,504,502,15464,-5472,3240,4352,4016,-15088
4865,480,504,504,15564,-5432,3260,4492,4072,-15052
4871,480,505,505,15604,-5460,3188,4312,4052,-15260
4876,480,506,506,15608,-5412,3272,4408,4232,-15288
4882,480,505,504,15548,-5460,3220,4380,4068,-15236
4887,480,504,502,15652,-5532,3212,4264,4132,-15164
4893,480,504,502,15608,-5444,3136,4404,4096,-15184
4898,480,506,504,15520,-5416,3408,4344,4088,-15236
4904,480,508,505,15580,-5452,3272,4292,4052,-15080
4911,480,503,508,15464,-5440,3128,4284,4144,-15176
4916,480,488,502,15540,-5560,3376,4360,4092,-15172
4922,480,452,495,15500,-5420,3272,4268,4148,-15240
4927,480,429,498,15572,-5500,3304,4220,4212,-15132
4933,480,460,513,15528,-5512,3248,4300,4220,-15256
4938,480,554,532,15580,-5508,3180,4300,4140,-15208
4944,480,690,555,15572,-5352,3248,4292,4108,-15296
4950,481,814,576,15532,-5400,3212,4248,4168,-15008
4956,481,849,576,15596,-5472,3256,4424,4132,-15264
4962,481,785,551,15552,-5440,3272,4320,4048,-14976
4967,481,662,516,15564,-5520,3388,4248,4152,-15140
4973,481,547,495,15584,-5596,3168,4372,4140,-15132
4978,481,480,492,15580,-5512,3284,4268,4136,-15256
4984,481,450,494,15508,-5480,3232,4348,4156,-15136
4989,481,439,492,15580,-5404,3252,4296,4120,-15068
4996,481,437,493,15604,-5528,3268,4344,4188,-15308
5002,481,440,494,15584,-5452,3384,4308,4104,-15108
5007,481,443,496,15580,-5528,3364,4252,4116,-15136
5013,481,446,499,15632,-5444,3320,4412,4264,-15028
5018,481,449,497,15596,-5448,3312,4204,4204,-15184
5024,481,453,493,15496,-5408,3212,4284,4012,-15248
5029,481,459,495,15596,-5548,3244,4236,4140,-15268
5036,482,464,501,15616,-5528,3332,4364,4116,-15108
5041,482,469,502,15564,-5392,3344,4396,4080,-15232
5047,482,471,502,15496,-5452,3180,4312,4160,-15284
5053,482,473,503,15484,-5520,3212,4412,4088,-15028
5058,482,475,500,15532,-5452,3256,4332,4112,-15232
5064,482,478,501,15588,-5484,3124,4332,4116,-15024
5069,482,479,503,15560,-5556,3204,4236,4164,-15112
5075,482,481,502,15444,-5548,3360,4408,4120,-15004
5081,482,484,505,15632,-5408,3196,4252,4128,-15032
5087,482,486,504,15596,-5444,3360,4236,4068,-14908
5092,482,488,503,15652,-5488,3176,4348,4096,-15236
5098,482,492,506,15644,-5424,3228,4328,4128,-15104
5104,482,493,504,15644,-5524,3244,4336,4120,-15128
5109,482,494,505,15480,-5492,3068,4236,4036,-14976
5115,482,497,508,15660,-5480,3260,4356,4108,-15192
5121,482,500,509,15628,-5468,3344,4232,4144,-15132
5127,482,502,508,15592,-5484,3376,4312,4160,-15444
5132,482,503,507,15572,-5576,3320,4324,4096,-15168
5138,482,505,511,15552,-5556,3296,4364,4068,-15072
5143,482,506,508,15536,-5500,3140,4396,4180,-15188
5149,482,508,509,15588,-5464,3224,4304,4164,-15084
5155,482,507,516,15544,-5504,3308,4204,4136,-15108
5160,482,506,511,15608,-5488,3316,4320,4272,-14976
5167,482,506,511,15540,-5464,3296,4268,4040,-15116
5172,482,508,514,15588,-5400,3260,4328,4136,-15112
5178,482,510,513,15696,-5416,3296,4356,4076,-15076
5183,482,510,509,15564,-5480,3236,4276,4112,-15188
5189,482,510,510,15576,-5372,3284,4312,4140,-15096
5195,482,510,508,15500,-5460,3268,4332,4076,-15116
5200,482,509,509,15584,-5456,3220,4364,4008,-15192
5207,482,507,513,15532,-5484,3320,4248,4076,-15180
5212,482,503,509,15568,-5484,3264,4384,4140,-15220
5218,482,502,501,15600,-5496,3176,4332,4108,-15340
5223,482,501,500,15548,-5448,3264,4364,4172,-15232
5229,482,498,499,15540,-5460,3304,4396,4164,-15088
5234,482,497,498,15588,-5436,3376,4352,4192,-15132
5240,482,496,497,15564,-5492,3232,4352,4276,-15128
5246,482,497,500,15544,-5540,3240,4344,4176,-15092
5252,482,498,499,15572,-5416,3344,4372,4176,-15128
5258,482,498,500,15592,-5432,3284,4260,4160,-15168
5263,482,500,501,15596,-5432,3276,4280,4196,-15140
5269,483,500,501,15556,-5460,3340,4272,4140,-15200
5274,483,500,500,15604,-5436,3276,4260,4152,-15240
5280,483,501,502,15624,-5428,3244,4276,4072,-15076
5285,483,502,503,15560,-5464,3296,4368,4264,-15140
5292,483,502,503,15600,-5476,3328,4308,4088,-15264
5298,483,504,506,15576,-5352,3316,4324,4092,-15136
5303,483,505,505,15524,-5460,3340,4316,3960,-15012
5309,483,507,505,15508,-5444,3292,4284,4108,-15168
5314,483,507,510,15580,-5472,3200,4324,4008,-15144
5320,483,507,504,15568,-5440,3236,4368,4160,-15244
5325,484,507,503,15444,-5400,3292,4400,4112,-15008
5331,484,508,505,15572,-5436,3308,4368,4120,-15312
5337,484,509,504,15524,-5500,3216,4380,4132,-15204
5343,484,511,501,15632,-5460,3448,4340,4192,-15052
5349,484,511,503,15548,-5484,3208,4296,4148,-15112
5354,484,511,509,15556,-5540,3280,4348,4096,-15164
5360,484,512,507,15648,-5500,3152,4372,4256,-15312
5365,484,512,504,15648,-5504,3372,4396,4156,-15160
5371,484,511,507,15588,-5420,3488,4272,4120,-15140
5377,484,509,506,15616,-5552,3272,4248,4132,-15244
5383,484,509,503,15584,-5552,3316,4264,4116,-15252
5388,484,511,501,15596,-5492,3200,4216,4004,-15212
5394,484,511,503,15596,-5460,3200,4348,4144,-15328
5400,484,511,504,15576,-5576,3248,4332,4060,-15220
5405,484,512,510,15644,-5452,3268,4276,4104,-15064
5411,484,511,513,15536,-5404,3096,4336,4204,-15236
5416,484,510,509,15640,-5516,3272,4260,4124,-15228
5423,484,508,503,15576,-5404,3416,4304,4064,-15064
5428,484,508,502,15572,-5532,3280,4328,4148,-15160
5434,484,507,502,15496,-5376,3308,4336,4172,-15164
5440,484,510,505,15604,-5532,3228,4300,4176,-15192
5445,485,512,507,15516,-5476,3292,4372,4152,-15028
5451,485,511,511,15620,-5464,3200,4396,4172,-15192
5456,485,510,507,15556,-5476,3256,4352,4160,-15068
5463,485,509,503,15508,-5416,3152,4400,4004,-15124
5468,485,511,503,15624,-5492,3180,4360,4132,-15188
5474,485,512,504,15500,-5488,3280,4248,4192,-15060
5479,485,511,506,15564,-5536,3060,4344,4140,-15092
5485,485,511,507,15544,-5428,3340,4268,4136,-15120
5491,485,510,508,15528,-5508,3492,4192,4060,-15124
5496,485,509,509,15496,-5516,3292,4272,4108,-15160
5502,485,510,510,15628,-5448,3284,4272,4156,-15068
5508,485,510,503,15584,-5468,3404,4392,4192,-15192
5514,485,509,503,15616,-5644,3096,4324,4104,-15048
5519,486,510,507,15616,-5420,3104,4356,4072,-15248
5525,486,510,508,15488,-5440,3172,4364,4140,-15104
5530,486,509,505,15576,-5472,3196,4304,4164,-15252
5536,486,509,503,15564,-5576,3184,4400,4140,-15200
5542,486,510,506,15580,-5416,3356,4336,4120,-15316
5548,486,512,508,15520,-5456,3248,4400,4188,-15164
5554,486,512,512,15552,-5504,3268,4368,4076,-15208
5559,486,512,514,15524,-5560,3212,4408,4192,-15148
5565,486,513,513,15576,-5464,3372,4396,4064,-15112
5570,486,513,511,15476,-5400,3420,4364,4168,-15104
5576,486,517,510,15632,-5428,3304,4316,4072,-15064
5581,486,519,510,15612,-5496,3364,4248,4136,-15096
5587,486,524,511,15584,-5464,3116,4252,4032,-15308
5594,486,524,512,15532,-5412,3248,4280,4120,-15208
5599,486,522,514,15592,-5456,3236,4304,4140,-15072
5605,486,519,511,15612,-5456,3256,4368,4028,-15176
5610,486,512,508,15588,-5496,3264,4412,4176,-15180
5616,486,511,511,15556,-5540,3360,4300,4084,-15300
5621,486,506,501,15612,-5516,3336,4392,4016,-15188
5627,486,503,500,15660,-5436,3244,4324,4128,-15064
5633,486,502,504,15564,-5460,3208,4252,4108,-15136
5639,486,503,502,15588,-5336,3096,4256,4168,-15064
5645,486,505,499,15488,-5468,3168,4220,4236,-15224
5650,486,506,505,15500,-5540,3284,4420,4112,-15064
5656,486,504,502,15572,-5544,3148,4332,4224,-15128
5661,487,504,502,15664,-5444,3264,4364,4136,-15052
5667,487,505,506,15400,-5420,3400,4420,4228,-15028
5672,487,506,506,15616,-5424,3284,4404,4104,-15188
5679,487,505,503,15640,-5568,3252,4336,4136,-15156
5685,487,505,501,15632,-5452,3300,4232,4132,-15156
5690,487,507,501,15608,-5484,3244,4404,4084,-15040
5696,487,505,500,15612,-5336,3404,4324,4156,-15248
5701,487,497,502,15608,-5428,3236,4288,4092,-15168
5707,487,471,500,15572,-5476,3420,4220,4180,-15036
5712,487,436,496,15564,-5484,3272,4400,4056,-15020
5719,487,434,505,15636,-5496,3320,4340,4092,-15208
5724,487,503,520,15492,-5440,3044,4236,4104,-15000
5730,487,616,545,15524,-5472,3392,4360,4136,-15236
5736,487,760,569,15572,-5552,3348,4316,4080,-15160
5741,487,844,580,15580,-5472,3272,4312,4084,-15088
5747,487,834,565,15496,-5460,3224,4220,4148,-15032
5752,487,732,537,15592,-5476,3308,4312,4184,-15132
5758,487,604,503,15620,-5544,3156,4340,4100,-15268
5764,487,511,491,15504,-5468,3212,4268,4088,-15272
5770,487,461,489,15600,-5448,3332,4388,4056,-15204
5775,487,442,492,15620,-5492,3212,4432,4188,-15040
5781,487,436,493,15608,-5460,3412,4300,4148,-15056
5787,487,437,493,15560,-5464,3260,4356,4060,-15152
5792,487,441,495,15580,-5496,3152,4356,4144,-15008
5798,487,444,493,15528,-5440,3400,4476,4132,-15124
5804,487,447,494,15564,-5504,3324,4432,4184,-15108
5810,487,450,496,15572,-5464,3180,4272,4192,-15232
5815,487,455,493,15512,-5536,3388,4308,4156,-15272
5821,487,459,495,15508,-5336,3248,4360,4132,-15116
5827,487,462,498,15672,-5448,3388,4280,4056,-15168
5832,486,466,500,15500,-5516,3356,4248,3936,-15056
5838,486,469,501,15444,-5476,3176,4344,4152,-15268
5843,486,472,499,15480,-5360,3300,4296,4068,-15092
5850,486,473,500,15596,-5448,3180,4296,4092,-15176
5855,486,476,505,15572,-5492,3328,4264,4140,-15224
5861,486,479,510,15648,-5532,3288,4316,4124,-15200
5866,486,480,502,15588,-5456,3356,4304,4228,-15068
5872,486,484,505,15496,-5440,3312,4260,4216,-15224
5878,486,487,510,15596,-5444,3244,4264,4236,-15220
5883,486,491,504,15600,-5400,3212,4284,4156,-15252
5890,486,493,499,15636,-5476,3136,4316,4092,-15148
5895,486,494,500,15480,-5276,3180,4340,4148,-15120
5901,486,496,503,15564,-5404,3252,4268,4136,-15160
5906,486,498,506,15612,-5440,3216,4300,4108,-15252
5912,486,499,510,15512,-5528,3272,4328,4048,-15140
5917,486,500,511,15528,-5552,3224,4348,4092,-15116
5923,486,502,510,15640,-5492,3292,4344,4208,-15300
5929,486,505,512,15516,-5488,3272,4300,4124,-15076
5935,485,505,516,15608,-5500,3248,4332,4132,-15340
5941,485,506,511,15576,-5484,3264,4344,4184,-15068
5946,485,507,512,15564,-5468,3336,4252,4200,-15144
5952,485,505,512,15580,-5396,3076,4188,4156,-15176
5957,485,506,513,15624,-5408,3228,4340,4220,-15124
5963,485,508,513,15584,-5488,3400,4268,4080,-15096
5968,485,508,514,15584,-5492,3220,4280,4028,-15136
5975,485,510,511,15532,-5424,3264,4284,4140,-15208
5981,485,511,509,15524,-5484,3184,4316,4080,-15176
5986,485,509,510,15568,-5552,3224,4304,4176,-15076
5992,485,506,510,15612,-5500,3284,4344,4028,-15164
5997,485,503,507,15500,-5456,3332,4304,4084,-15164
6003,485,499,506,15592,-5488,3268,4288,4148,-15160
6008,485,498,505,15584,-5468,3316,4412,4124,-15164
6014,485,497,503,15588,-5476,3304,4452,4164,-15016
6020,485,495,499,15600,-5472,3240,4304,4156,-15260
6026,485,493,497,15612,-5476,3256,4380,4216,-15168
6032,485,492,498,15636,-5556,3256,4220,4216,-15100
6037,485,493,496,15588,-5340,3300,4260,4216,-15100
6043,485,494,496,15572,-5360,3276,4256,4228,-15064
6048,485,494,497,15616,-5436,3336,4244,4200,-15176
6054,485,495,498,15572,-5444,3220,4344,4064,-15092
6060,485,496,496,15632,-5372,3216,4228,4060,-15088
6066,485,497,498,15680,-5532,3180,4264,4040,-15116
6072,485,500,503,15520,-5428,3296,4380,4076,-15292
6077,485,502,503,15592,-5528,3324,4372,4112,-15180
6083,485,503,500,15544,-5428,3216,4280,4040,-15076
6088,485,504,502,15552,-5444,3144,4452,4084,-15180
6094,485,504,506,15584,-5396,3164,4384,4156,-15084
6099,485,503,504,15560,-5416,3348,4340,4204,-15196
6106,485,503,502,15544,-5488,3220,4424,4104,-15108
6111,485,505,503,15528,-5424,3372,4248,4196,-15040
6117,485,508,502,15524,-5440,3376,4400,4192,-15244
6123,485,509,503,15516,-5436,3140,4340,4180,-15208
6128,485,510,504,15588,-5540,3300,4400,4080,-15148
6134,485,509,504,15560,-5416,3384,4336,4144,-15200
6139,485,508,503,15612,-5492,3216,4328,4056,-15220
6146,485,509,506,15592,-5476,3384,4324,4236,-15176
6151,485,509,506,15564,-5460,3208,4324,4024,-15064
6157,485,509,505,15548,-5536,3320,4160,4044,-15312
6162,485,508,507,15592,-5420,3176,4284,4132,-15096
6168,485,509,509,15540,-5476,3320,4188,4108,-15260
6174,485,509,509,15524,-5456,3264,4304,4136,-15112
6179,485,508,507,15640,-5420,3256,4284,4152,-15168
6185,485,505,505,15552,-5488,3240,4232,4180,-15176
6191,485,504,504,15640,-5476,3264,4212,4148,-15012
6197,485,507,508,15528,-5444,3264,4296,4188,-15064
6202,485,509,504,15520,-5392,3208,4344,4136,-15144
6208,485,508,503,15544,-5508,3292,4204,4152,-15132
6213,485,508,503,15580,-5432,3404,4372,4112,-15092
6219,485,509,501,15488,-5504,3160,4404,4124,-15096
6225,485,509,503,15572,-5484,3272,4316,4096,-15108
6231,485,508,503,15644,-5500,3224,4384,4168,-15252
6237,485,508,505,15684,-5516,3168,4308,4232,-15100
6242,485,508,507,15524,-5448,3184,4500,4124,-15056
6248,485,508,510,15400,-5544,3300,4272,4000,-15164
6253,486,509,508,15468,-5572,3304,4200,4152,-14952
6259,486,509,504,15688,-5456,3180,4256,4116,-15116
6265,486,510,505,15616,-5492,3332,4240,4140,-15192
6270,486,511,505,15556,-5488,3320,4208,4080,-15188
6277,486,510,504,15648,-5516,3132,4280,4016,-15296
6282,486,509,506,15652,-5420,3384,4296,4168,-15324
6288,486,508,508,15616,-5404,3228,4164,4196,-15012
6293,486,509,505,15540,-5468,3388,4316,4160,-15060
6299,486,511,505,15592,-5464,3248,4240,4092,-15192
6304,486,510,507,15528,-5496,3268,4272,4236,-15096
6310,486,508,507,15508,-5404,3332,4460,4184,-15088
6317,486,508,509,15624,-5456,3304,4368,4176,-15100
6322,486,511,512,15608,-5444,3288,4312,4124,-15188
6328,486,513,506,15516,-5492,3192,4380,4108,-15228
6333,486,512,508,15624,-5420,3420,4384,4172,-15192
6339,486,512,511,15520,-5464,3248,4316,4228,-15168
6344,486,512,510,15524,-5420,3356,4376,4060,-15248
6350,486,511,507,15592,-5432,3392,4364,4048,-15192
6355,486,514,508,15508,-5516,3236,4280,4044,-15320
6362,486,518,510,15568,-5568,3472,4344,4116,-15080
6368,486,524,510,15536,-5488,3224,4352,4116,-15172
6373,486,524,513,15456,-5588,3260,4352,4092,-15168
6379,486,524,514,15620,-5460,3460,4344,4056,-15188
6384,486,520,509,15576,-5372,3172,4396,4212,-15204
6390,486,513,508,15540,-5420,3252,4292,4148,-15192
6395,486,512,505,15612,-5516,3272,4324,4176,-15260
6402,486,507,505,15584,-5476,3368,4292,4152,-15260
6407,486,506,504,15616,-5556,3300,4408,4172,-15036
6413,486,505,505,15676,-5408,3252,4416,4124,-15220
6419,486,504,503,15544,-5472,3368,4316,4200,-15236
6424,486,503,501,15588,-5380,3228,4208,4044,-15328
6430,486,502,500,15652,-5444,3308,4240,4148,-15256
6435,486,502,501,15640,-5532,3392,4404,4152,-15112
6441,486,503,503,15572,-5420,3288,4172,4176,-15088
6447,486,504,502,15520,-5512,3280,4248,4140,-15252
6453,486,504,503,15496,-5416,3276,4180,4236,-15108
6459,486,504,506,15516,-5564,3268,4248,4176,-15144
6464,486,506,506,15496,-5484,3224,4368,4156,-15160
6470,486,506,508,15544,-5460,3212,4340,4200,-15320
6475,486,505,508,15492,-5540,3324,4316,4196,-15312
6481,486,496,505,15560,-5572,3200,4212,4136,-15240
6487,487,470,505,15592,-5488,3216,4296,4060,-15280
6493,487,435,503,15508,-5512,3144,4280,4152,-15320
6498,487,432,505,15592,-5524,3264,4368,4224,-15184
6504,487,499,518,15572,-5540,3240,4312,4220,-15212
6510,487,613,545,15568,-5428,3276,4332,4124,-15132
6515,487,758,568,15660,-5488,3160,4292,4192,-15060
6521,487,840,579,15572,-5492,3168,4360,4120,-15108
6526,487,827,566,15568,-5464,3360,4360,4080,-15220
6533,487,726,536,15500,-5472,3220,4248,4116,-15192
6538,487,600,502,15528,-5504,3156,4180,4068,-15152
6544,487,507,489,15596,-5356,3260,4232,4108,-15176
6549,487,457,487,15540,-5400,3344,4232,4124,-15096
6555,487,440,490,15536,-5360,3380,4296,4168,-15268
6561,487,434,496,15524,-5500,3340,4312,4136,-15168
6566,487,435,495,15628,-5472,3368,4352,4060,-15000
6573,487,441,497,15592,-5480,3316,4356,4140,-15176
6578,487,445,496,15664,-5340,3208,4288,4144,-15196
6584,487,448,495,15652,-5488,3100,4276,4040,-15120
6589,487,451,492,15560,-5412,3296,4344,4128,-15132
6595,487,454,496,15580,-5508,3236,4316,4084,-15188
6600,487,457,500,15588,-5572,3316,4300,4124,-15164
6606,488,460,501,15644,-5528,3272,4468,4184,-15172
6612,488,465,499,15520,-5476,3188,4316,4208,-15204
6618,488,469,500,15492,-5532,3348,4340,4100,-15192
6624,488,472,503,15588,-5432,3232,4292,4108,-15172
6629,488,475,506,15612,-5364,3244,4368,4140,-15068
6635,488,477,507,15588,-5416,3184,4352,4104,-15228
6640,489,480,507,15516,-5532,3152,4304,4100,-15064
6646,489,482,507,15580,-5468,3320,4256,4204,-15096
6651,489,484,508,15560,-5468,3272,4224,4096,-15204
6658,489,488,505,15564,-5512,3268,4324,4156,-15092
6664,489,490,505,15572,-5536,3180,4296,4100,-15092
6669,489,491,507,15568,-5448,3336,4200,3972,-15180
6675,489,492,508,15580,-5416,3252,4360,4112,-15236
6680,489,494,508,15604,-5444,3404,4260,4028,-15288
6686,489,497,508,15568,-5392,3236,4200,4092,-15112
6691,489,498,508,15552,-5500,3320,4348,4228,-15040
6697,489,499,508,15648,-5420,3196,4308,4132,-15120
6703,489,501,509,15504,-5400,3256,4316,4084,-15208
6709,489,503,513,15516,-5400,3348,4336,4204,-15076
6715,489,506,513,15564,-5528,3328,4408,4196,-15048
6720,489,506,514,15484,-5404,3224,4384,4280,-15072
6726,489,506,515,15640,-5508,3184,4312,4204,-15120
6731,489,507,511,15572,-5440,3256,4296,4260,-15252
6737,489,507,512,15584,-5480,3192,4332,4208,-15016
6743,489,509,512,15652,-5388,3368,4412,4112,-15168
6749,489,509,511,15572,-5484,3384,4400,4188,-15212
6755,489,509,512,15588,-5464,3252,4336,3900,-15092
6760,489,507,512,15468,-5484,3232,4280,4084,-15152
6766,489,505,514,15568,-5400,3340,4304,4060,-15176
6771,489,503,508,15496,-5452,3236,4268,4056,-15256
6777,489,501,507,15540,-5448,3248,4352,3948,-15224
6782,489,498,504,15584,-5468,3212,4264,4164,-15268
6789,489,495,504,15504,-5392,3340,4284,4132,-14992
6794,489,493,503,15676,-5496,3196,4332,4200,-15116
6800,489,493,501,15524,-5544,3300,4324,4264,-15048
6806,490,492,499,15640,-5320,3268,4356,4204,-15228
6811,490,491,496,15560,-5540,3260,4364,4196,-15164
6817,490,491,495,15552,-5520,3216,4380,4216,-15176
6822,490,491,495,15616,-5520,3184,4272,4180,-15036
6829,490,491,499,15592,-5520,3212,4240,4156,-15220
6834,490,494,501,15544,-5360,3320,4340,4208,-15260
6840,490,497,500,15636,-5452,3144,4212,4116,-15048
6845,490,498,500,15528,-5476,3308,4196,4092,-15108
6851,490,499,499,15524,-5476,3332,4276,4020,-15220
6857,490,501,503,15540,-5400,3280,4312,3992,-15232
6862,490,500,505,15564,-5584,3236,4432,4104,-15368
6868,490,502,503,15572,-5492,3360,4348,4136,-15204
6874,490,503,498,15520,-5500,3080,4288,4148,-15232
6880,490,503,502,15552,-5476,3316,4428,4152,-15036
6885,490,505,503,15612,-5528,3268,4292,4172,-15168
6891,490,507,503,15584,-5440,3380,4344,4188,-15208
6896,490,507,502,15608,-5520,3352,4292,4152,-15064
6902,490,507,503,15528,-5340,3268,4428,4180,-15172
6908,490,507,505,15576,-5512,3196,4412,4168,-15260
6914,490,506,508,15608,-5464,3228,4228,4200,-15236
6920,490,507,508,15580,-5408,3272,4336,4080,-15152
6925,491,508,505,15544,-5472,3388,4340,4252,-15188
6931,491,510,505,15496,-5480,3164,4184,4052,-15100
6936,491,510,506,15628,-5416,3332,4244,4024,-15080
6942,491,509,511,15600,-5464,3160,4292,4032,-15260
6947,491,509,506,15500,-5456,3268,4336,4128,-15276
6953,491,506,504,15560,-5468,3264,4268,4064,-15096
6960,491,506,504,15548,-5500,3224,4268,4172,-15152
6965,491,508,504,15540,-5444,3320,4328,4084,-15080
6971,491,509,505,15532,-5496,3312,4284,4116,-15340
6976,491,508,508,15612,-5448,3396,4304,4212,-15148
6982,491,509,507,15680,-5500,3244,4300,4192,-15000
6987,491,509,508,15548,-5524,3188,4400,4112,-15148
6993,491,509,506,15544,-5468,3252,4312,4172,-15188
7000,491,509,505,15572,-5544,3224,4404,4200,-15140
7005,491,509,505,15632,-5496,3096,4352,4176,-15240
7011,491,509,504,15556,-5448,3128,4356,4192,-15152
7016,491,509,504,15640,-5532,3228,4412,4012,-15152
7022,491,509,504,15592,-5476,3300,4296,4056,-15272
7027,491,510,508,15588,-5388,3328,4216,4052,-15268
7033,491,509,508,15652,-5512,3320,4284,4128,-15180
7038,491,509,505,15520,-5532,3336,4240,4076,-15188
7045,491,509,511,15632,-5520,3324,4244,4084,-15188
7051,491,508,505,15528,-5504,3360,4236,4024,-15080
7056,491,507,502,15568,-5500,3224,4320,4140,-15144
7062,491,507,503,15572,-5492,3396,4284,4068,-15168
7067,491,507,506,15572,-5436,3252,4332,4148,-15048
7073,491,508,508,15540,-5524,3356,4276,4236,-15224
7078,491,510,505,15564,-5540,3184,4172,4168,-15264
7085,492,509,505,15500,-5460,3328,4368,4216,-15252
7090,492,508,507,15508,-5488,3252,4320,4252,-15160
7096,492,508,508,15548,-5472,3124,4352,4164,-15120
7102,492,509,508,15588,-5376,3200,4212,4168,-15152
7107,492,513,509,15568,-5488,3324,4292,4172,-15184
7113,492,514,509,15660,-5460,3352,4252,4180,-15136
7118,492,514,516,15480,-5392,3320,4292,4096,-14908
7124,492,512,516,15516,-5388,3132,4256,4052,-15148
7130,492,513,513,15612,-5400,3268,4248,4060,-15212
7136,492,515,512,15544,-5392,3224,4316,4076,-15232
7141,492,519,509,15516,-5460,3312,4344,4104,-15076
7147,492,522,508,15548,-5568,3372,4324,4104,-15100
7153,492,523,511,15568,-5472,3268,4296,4108,-15344
7158,492,520,513,15636,-5484,3248,4316,4140,-15104
7164,492,514,511,15456,-5436,3124,4268,4152,-15244
7170,492,511,507,15612,-5496,3216,4304,4096,-15276
7176,492,506,503,15596,-5428,3244,4224,4188,-15248
7181,492,502,502,15592,-5424,3404,4216,4140,-15168
7187,492,502,502,15488,-5424,3144,4372,4112,-15152
7192,493,504,506,15564,-5444,3156,4364,4244,-15108
7198,493,505,505,15504,-5456,3372,4276,4020,-15104
7204,493,504,504,15592,-5444,3168,4340,4180,-15104
7209,493,504,503,15476,-5440,3172,4288,4196,-15096
7216,493,505,504,15560,-5516,3388,4384,4056,-15164
7221,493,505,502,15716,-5460,3440,4348,4156,-15208
7227,493,505,500,15668,-5380,3244,4292,4160,-15172
7232,493,506,502,15540,-5572,3096,4216,4036,-15076
7238,493,505,503,15580,-5564,3224,4332,4180,-15152
7244,493,505,502,15636,-5488,3232,4352,4092,-15064
7249,493,504,506,15512,-5532,3228,4388,4104,-15128
7256,493,499,506,15664,-5472,3272,4328,4092,-15316
7261,493,482,501,15520,-5464,3236,4188,4048,-15244
7267,493,446,498,15476,-5492,3436,4268,4096,-15112
7272,493,427,502,15572,-5492,3260,4316,4172,-15264
7278,493,468,515,15624,-5492,3156,4404,4076,-15100
7283,493,567,537,15532,-5548,3256,4360,4100,-15076
7289,494,706,560,15480,-5460,3292,4304,4196,-15020
7296,494,821,578,15472,-5424,3280,4420,4116,-15164
7301,494,846,574,15632,-5492,3252,4392,4088,-15132
7307,494,771,547,15628,-5516,3228,4444,4168,-15144
7312,494,646,512,15528,-5504,3504,4388,4184,-15344
7318,494,539,492,15608,-5464,3260,4332,4112,-15168
7323,494,477,489,15532,-5504,3084,4316,4112,-15156
7329,494,449,491,15544,-5492,3208,4212,4124,-15152
7334,494,436,490,15576,-5444,3300,4220,4092,-15216
7341,494,434,491,15516,-5544,3216,4260,4176,-15128
7347,494,438,493,15692,-5512,3324,4348,4044,-15108
7352,494,442,496,15616,-5484,3192,4280,4136,-15192
7358,495,445,499,15604,-5444,3416,4320,4184,-15132
7363,495,449,497,15608,-5516,3328,4300,4088,-15140
7369,495,454,501,15564,-5516,3204,4340,4188,-15328
7374,495,458,499,15620,-5420,3352,4300,4204,-15176
7380,495,462,498,15572,-5408,3316,4304,4092,-15068
7387,495,464,500,15572,-5448,3176,4336,4112,-15188
7392,495,467,501,15628,-5456,3440,4316,4076,-15280
7398,495,471,500,15584,-5432,3164,4332,4112,-15008
7403,495,473,500,15576,-5384,3312,4320,4176,-15196
7409,495,476,502,15512,-5436,3328,4380,4064,-15268
7414,495,481,502,15568,-5572,3220,4324,4188,-15088
7420,495,485,501,15604,-5496,3212,4324,4112,-15192
7426,495,487,502,15632,-5488,3284,4312,4152,-15300
7432,495,487,505,15576,-5464,3336,4164,4160,-15164
7438,495,487,506,15568,-5476,3220,4228,4180,-15192
7443,495,490,507,15608,-5492,3224,4364,4144,-15248
7449,495,494,507,15676,-5520,3392,4272,4096,-15156
7454,495,496,510,15612,-5452,3140,4316,4056,-15224
7460,495,497,510,15496,-5472,3220,4316,4136,-15320
7465,495,499,510,15460,-5592,3156,4300,4196,-15220
7472,495,500,512,15572,-5492,3140,4240,4056,-15092
7477,495,502,511,15524,-5516,3320,4308,4164,-15144
7483,495,502,510,15540,-5476,3224,4260,4084,-15176
7489,495,503,513,15604,-5508,3380,4264,4140,-15212
7494,495,506,512,15504,-5452,3252,4324,4228,-15104
7500,495,507,513,15484,-5444,3292,4324,4140,-15080
7505,495,507,514,15504,-5504,3212,4344,4132,-15196
7512,495,507,515,15612,-5504,3300,4364,4064,-15100
7517,495,509,516,15592,-5344,3188,4352,4052,-14980
7523,495,510,515,15600,-5500,3252,4292,4104,-15148
7528,495,511,514,15600,-5472,3240,4344,4052,-15368
7534,495,511,509,15552,-5392,3300,4236,4036,-15280
7540,496,512,510,15588,-5508,3400,4296,4060,-15116
7545,496,509,509,15584,-5548,3260,4264,3988,-15172
7552,496,505,506,15612,-5488,3256,4304,4028,-15208
7557,496,502,505,15488,-5584,3280,4304,4124,-15096
7563,496,498,507,15548,-5560,3352,4336,4216,-15208
7568,496,495,502,15576,-5428,3320,4324,4184,-15228
7574,496,495,502,15568,-5428,3244,4264,4156,-14956
7580,496,496,501,15532,-5528,3268,4216,4228,-15024
7585,496,498,502,15556,-5496,3308,4324,4212,-15180
7591,497,496,502,15596,-5576,3280,4288,4232,-15276
7597,497,495,503,15548,-5520,3324,4208,4268,-15076
7603,497,496,501,15484,-5508,3192,4288,4148,-15292
7608,497,498,502,15560,-5364,3180,4228,4196,-15292
7614,497,499,500,15584,-5504,3256,4304,4172,-15068
7619,497,500,497,15548,-5456,3236,4280,4152,-15220
7625,497,502,497,15624,-5496,3096,4256,4120,-15080
7631,497,502,499,15464,-5492,3368,4296,4156,-15184
7636,497,502,500,15532,-5488,3304,4368,4064,-15060
7643,497,503,499,15592,-5528,3252,4340,4104,-15156
7648,497,504,503,15564,-5440,3048,4260,4032,-15104
7654,498,504,503,15628,-5520,3116,4352,4168,-15068
7659,497,505,501,15592,-5412,3096,4324,4164,-15132
7665,498,507,502,15576,-5420,3208,4276,4228,-15184
7670,498,508,505,15692,-5408,3244,4348,4132,-15140
7676,498,508,504,15616,-5432,3240,4360,4112,-15096
7683,498,509,504,15532,-5404,3352,4276,4100,-15120
7688,498,508,510,15540,-5492,3388,4296,4132,-15296
7694,498,509,509,15556,-5412,3164,4260,4132,-15184
7699,498,510,503,15576,-5460,3176,4352,4128,-15164
7705,498,509,503,15524,-5528,3248,4296,4152,-15076
7710,498,511,509,15584,-5476,3424,4296,4152,-15192
7716,498,512,504,15564,-5520,3440,4204,3948,-15252
7723,498,512,504,15572,-5472,3260,4284,4024,-15248
7728,498,511,504,15536,-5456,3292,4268,4208,-15272
7734,498,512,507,15504,-5436,3276,4320,4136,-15220
7739,498,511,506,15552,-5468,3132,4388,4176,-15104
7745,498,512,507,15608,-5516,3300,4236,4184,-15148
7750,498,510,511,15576,-5476,3320,4296,4276,-15124
7756,498,508,511,15616,-5584,3304,4312,4184,-15220
7761,498,509,508,15552,-5472,3348,4348,4148,-15336
7768,499,512,507,15592,-5428,3232,4276,4212,-15020
7774,499,511,504,15576,-5472,3196,4296,4144,-15144
7779,499,511,503,15576,-5464,3344,4380,4156,-15208
7785,499,511,508,15596,-5428,3296,4352,4120,-15180
7790,499,512,509,15512,-5484,3244,4388,4212,-15144
7796,499,513,504,15604,-5580,3320,4368,4112,-15116
7801,499,512,505,15552,-5520,3400,4420,4100,-15156
7808,499,513,507,15584,-5424,3452,4276,4100,-15068
7813,499,511,507,15564,-5464,3252,4284,4172,-15144
7819,499,510,507,15476,-5456,3292,4364,4104,-15148
7825,499,510,509,15548,-5536,3312,4172,4040,-15220
7830,499,512,512,15576,-5472,3032,4248,4236,-15028
7836,499,511,506,15584,-5448,3188,4264,4176,-15196
7841,499,512,505,15584,-5496,3208,4252,4192,-15180
7847,499,512,509,15560,-5500,3120,4332,4176,-15136
7853,499,512,504,15624,-5432,3264,4344,4164,-15232
7859,499,514,503,15612,-5456,3344,4180,4068,-15156
7864,499,513,504,15600,-5464,3296,4216,4112,-15012
7870,499,514,505,15596,-5368,3384,4276,4120,-15132
7876,499,513,509,15608,-5472,3136,4464,4136,-15228
7881,499,512,509,15528,-5492,3376,4280,4168,-15092
7887,499,513,509,15568,-5460,3240,4296,4168,-15100
7892,499,515,510,15572,-5480,3220,4316,4108,-15192
7899,499,516,513,15540,-5476,3152,4312,4180,-15332
7904,499,516,514,15516,-5472,3268,4356,4076,-15236
7910,499,517,515,15544,-5552,3368,4332,4088,-15244
7915,498,519,518,15632,-5504,3320,4332,4092,-15240
7921,498,522,513,15544,-5392,3368,4400,4124,-15120
7927,498,528,514,15560,-5488,3316,4272,4072,-15244
7932,498,527,515,15620,-5568,3332,4324,4136,-15196
7939,498,524,513,15528,-5528,3204,4276,4080,-15096
7944,498,520,510,15564,-5468,3400,4304,4048,-15236
7950,498,515,510,15520,-5436,3404,4204,4076,-15084
7955,498,513,507,15500,-5536,3220,4252,3968,-15132
7961,498,508,503,15504,-5536,3200,4296,4096,-15104
7966,498,507,502,15608,-5468,3332,4344,4212,-15136
7972,498,509,506,15544,-5476,3276,4340,4104,-15296
7979,498,509,506,15556,-5516,3128,4268,4252,-15116
7984,498,507,501,15592,-5528,3356,4296,4140,-15152
7990,498,507,501,15536,-5476,3400,4320,4152,-14952
7995,498,508,505,15604,-5512,3100,4244,4176,-15216
8001,498,509,508,15644,-5528,3376,4372,4052,-15072
8006,498,508,504,15560,-5524,3288,4344,4096,-15188
8012,498,507,501,15528,-5488,3256,4404,4156,-15200
8017,497,509,502,15616,-5476,3300,4248,4160,-15204
8024,497,510,502,15496,-5464,3324,4340,4016,-15164
8030,498,508,504,15580,-5560,3208,4328,4176,-15008
8035,498,505,504,15580,-5500,3424,4292,4168,-15192
8041,497,494,503,15500,-5444,3336,4280,4036,-15216
8046,497,462,499,15560,-5428,3272,4244,4088,-15120
8052,497,434,498,15460,-5580,3252,4236,3964,-15248
8057,497,448,510,15596,-5496,3292,4280,4052,-15224
8064,497,533,532,15512,-5444,3284,4256,4120,-15192
8069,497,655,555,15672,-5464,3344,4372,4084,-15288
8075,497,791,577,15620,-5412,3200,4308,4080,-15024
8081,497,846,579,15512,-5536,3328,4360,4080,-15140
8086,497,802,557,15560,-5472,3336,4396,4068,-15256
8092,497,686,523,15552,-5500,3072,4368,4056,-15108
8097,497,569,495,15496,-5464,3260,4308,4164,-15180
8103,497,492,485,15572,-5492,3200,4276,4188,-15036
8109,497,456,489,15532,-5428,3172,4372,4080,-15320
8115,497,443,489,15632,-5388,3196,4316,4124,-15204
8120,497,440,492,15608,-5460,3388,4268,4044,-15000
8126,496,442,495,15592,-5536,3216,4248,4152,-15308
8132,496,445,495,15532,-5460,3244,4252,4104,-15212
8137,496,449,496,15560,-5516,3208,4324,4204,-15132
8143,496,453,496,15628,-5524,3344,4248,4088,-15124
8148,496,457,499,15540,-5456,3132,4308,4040,-15120
8155,496,460,500,15588,-5504,3304,4360,4120,-15292
8160,496,464,498,15540,-5480,3368,4332,4140,-15168
8166,496,467,499,15500,-5440,3196,4284,4132,-15156
8172,496,472,503,15620,-5528,3348,4304,4164,-15232
8177,496,475,505,15568,-5456,3332,4248,4168,-15392
8183,496,477,501,15532,-5552,3332,4408,4060,-15020
8188,496,480,501,15616,-5516,3280,4332,4132,-15120
8195,496,483,503,15640,-5444,3252,4368,4136,-15208
8200,496,484,509,15480,-5508,3396,4324,4152,-15116
8206,496,487,512,15604,-5480,3268,4284,4080,-15196
8211,496,491,504,15512,-5476,3252,4344,4084,-15252
8217,496,494,502,15568,-5344,3376,4252,4056,-15148
8223,496,496,503,15588,-5476,3216,4260,4080,-15096
8228,496,496,505,15544,-5512,3296,4252,4148,-15192
8235,496,496,508,15572,-5492,3320,4296,4216,-15224
8240,496,499,509,15492,-5420,3304,4428,4120,-15176
8246,496,501,509,15556,-5428,3308,4368,4076,-15268
8251,495,502,512,15580,-5340,3184,4344,4200,-15380
8257,496,503,514,15588,-5484,3288,4304,4220,-15144
8262,495,505,516,15496,-5528,3228,4340,4216,-15236
8268,495,506,511,15640,-5516,3196,4256,4132,-15272
8274,495,507,513,15536,-5480,3304,4400,4180,-15256
8280,495,510,514,15576,-5472,3224,4296,4204,-15100
8286,495,509,516,15584,-5420,3100,4228,4152,-15108
8291,495,511,517,15508,-5480,3216,4332,4016,-15112
8297,495,512,512,15560,-5476,3364,4236,4080,-15224
8302,495,513,511,15600,-5404,3160,4396,4072,-15048
8308,495,513,512,15628,-5552,3272,4320,4024,-15308
8314,495,511,515,15572,-5524,3136,4260,4100,-15268
8320,495,511,512,15540,-5484,3368,4336,4056,-15144
8326,495,509,513,15568,-5476,3184,4340,4048,-15100
8331,495,505,507,15452,-5496,3316,4340,4116,-15380
8337,495,501,505,15428,-5440,3300,4336,4164,-15028
8342,495,496,504,15636,-5500,3376,4316,4128,-15232
8348,495,492,504,15536,-5436,3248,4316,4216,-15344
8353,495,492,500,15480,-5456,3392,4388,4180,-15280
8359,495,492,498,15576,-5464,3308,4316,4268,-15264
8366,495,491,496,15600,-5364,3080,4388,4196,-15184
8371,495,490,497,15504,-5460,3188,4252,4272,-15040
8377,495,491,498,15512,-5504,3316,4284,4200,-15180
8382,495,491,500,15564,-5496,3188,4224,4120,-15092
8388,495,492,501,15616,-5432,3480,4200,4116,-15204
8393,495,492,500,15624,-5468,3288,4228,4120,-15172
8399,495,492,502,15568,-5436,3268,4312,4076,-15144
8404,495,493,497,15684,-5652,3328,4284,4152,-15232
8411,495,495,497,15520,-5412,3276,4300,4068,-15236
8417,495,497,499,15568,-5540,3248,4376,3992,-15176
8422,495,498,501,15548,-5432,3312,4276,4068,-15180
8428,495,498,505,15632,-5572,3304,4344,4104,-15196
8433,495,498,500,15508,-5460,3220,4360,4172,-15124
8439,495,498,500,15656,-5488,3192,4332,4160,-15124
8444,495,500,501,15652,-5340,3220,4344,4184,-15252
8451,495,502,503,15584,-5508,3332,4328,4144,-15204
8456,495,502,506,15584,-5444,3032,4324,4140,-15196
8462,495,504,505,15656,-5428,3168,4284,4180,-15144
8468,495,504,510,15576,-5472,3352,4284,4148,-15308
8473,495,505,506,15532,-5496,3436,4308,4100,-15148
8479,495,505,502,15456,-5396,3104,4184,3988,-15256
8484,495,505,504,15596,-5512,3140,4156,4080,-15164
8491,495,505,507,15524,-5468,3276,4248,4060,-15300
8496,495,503,506,15540,-5532,3244,4212,4044,-15200
8502,495,502,503,15516,-5492,3308,4192,4088,-15240
8508,495,504,505,15516,-5512,3536,4212,4156,-15196
8513,495,504,505,15608,-5452,3220,4344,4092,-15264
8519,495,505,505,15608,-5392,3168,4324,4176,-15152
8524,495,503,505,15568,-5480,3184,4224,4072,-15116
8530,495,502,501,15680,-5408,3272,4360,4204,-15240
8536,495,503,501,15588,-5388,3400,4336,4208,-15232
8542,495,504,505,15560,-5448,3296,4296,4208,-15148
8547,495,503,503,15568,-5544,3332,4384,4272,-15112
8553,495,503,504,15600,-5476,3248,4364,4108,-15216
8559,495,503,505,15568,-5460,3304,4340,4184,-15240
8564,495,503,503,15544,-5496,3292,4376,4008,-15196
8570,495,504,503,15524,-5420,3340,4348,4072,-15156
8576,495,503,502,15580,-5428,3344,4320,4092,-15156
8582,495,501,505,15568,-5480,3184,4248,4080,-15132
8587,495,501,505,15560,-5400,3320,4292,4156,-15292
8593,495,503,508,15576,-5500,3324,4296,4208,-15212
8598,495,506,503,15604,-5448,3288,4292,4128,-15260
8604,495,506,505,15608,-5528,3236,4340,4116,-15044
8610,495,507,506,15540,-5472,3204,4324,4164,-15096
8615,495,507,508,15584,-5380,3336,4340,4124,-15120
8622,495,507,509,15524,-5456,3372,4296,4172,-15028
8627,495,507,508,15532,-5456,3336,4344,4132,-15172
8633,495,509,512,15580,-5392,3196,4224,4208,-15128
8638,495,513,516,15600,-5420,3348,4364,4156,-15296
8644,495,517,509,15504,-5404,3128,4412,4276,-15152
8650,495,521,506,15540,-5512,3196,4368,4220,-15120
8655,495,520,507,15556,-5448,3252,4352,4216,-15132
8662,495,518,510,15640,-5484,3216,4284,4260,-15124
8667,495,511,509,15632,-5540,3212,4344,4100,-14908
8673,495,506,503,15456,-5448,3192,4332,4124,-15276
8678,495,502,498,15588,-5452,3360,4380,4152,-15316
8684,495,498,499,15648,-5476,3232,4268,4056,-15136
8689,495,499,498,15564,-5528,3328,4332,4112,-15048
8695,495,500,498,15508,-5396,3144,4316,4128,-15160
8701,495,500,501,15556,-5476,3208,4176,4080,-15120
8707,494,500,501,15524,-5508,3196,4232,4096,-15196
8713,494,499,500,15488,-5524,3196,4144,4128,-15192
8718,494,498,498,15596,-5412,3228,4312,4156,-15276
8724,494,498,495,15564,-5620,3160,4208,4092,-15300
8729,494,499,498,15596,-5464,3284,4336,4056,-15108
8735,494,500,499,15560,-5472,3112,4204,4168,-15140
8740,494,501,499,15692,-5488,3224,4352,4220,-15100
8747,494,500,500,15540,-5412,3320,4304,4224,-15144
8753,494,500,500,15480,-5548,3188,4280,4076,-15292
8758,494,497,501,15572,-5432,3456,4292,4164,-15204
8764,494,485,498,15508,-5476,3428,4340,4172,-15124
8769,494,458,495,15596,-5532,3248,4268,4184,-15244
8775,493,428,498,15548,-5436,3284,4268,4176,-15284
8780,493,434,506,15612,-5524,3260,4304,4160,-15200
8786,493,512,521,15624,-5536,3212,4420,4160,-15316
8792,493,630,543,15540,-5564,3196,4308,4116,-15216
8798,493,769,567,15632,-5400,3236,4264,4124,-15204
8804,493,834,578,15648,-5456,3236,4212,4140,-15048
8809,493,802,559,15512,-5536,3268,4268,4152,-15200
8815,493,694,527,15604,-5352,3344,4304,4100,-15184
8820,493,571,497,15588,-5448,3320,4204,4076,-15148
8826,493,489,486,15604,-5492,3240,4264,4064,-15104
8832,493,449,488,15620,-5484,3268,4328,4024,-15172
8838,493,435,488,15596,-5460,3284,4292,3996,-15196
8843,493,431,487,15628,-5440,3284,4208,4116,-15032
8849,493,433,491,15548,-5468,3116,4232,4160,-15120
8855,493,437,490,15524,-5556,3384,4180,4124,-15008
8860,493,440,489,15572,-5380,3276,4272,4196,-15152
8866,493,445,493,15556,-5420,3336,4356,4064,-15192
8871,493,449,494,15508,-5512,3072,4316,4120,-15164
8878,493,451,495,15584,-5524,3304,4372,4144,-15088
8883,493,456,496,15548,-5492,3112,4240,4164,-15244
8889,493,458,497,15572,-5496,3232,4320,4216,-15348
8895,493,463,500,15552,-5448,3172,4352,4140,-15224
8900,493,467,501,15528,-5500,3180,4288,4224,-14996
8906,493,470,501,15516,-5364,3216,4300,4180,-15156
8911,493,471,502,15636,-5384,3408,4388,4136,-15316
8918,493,474,501,15664,-5428,3260,4356,4108,-15132
8923,493,477,506,15588,-5444,3324,4228,4012,-15340
8929,493,479,500,15592,-5508,3192,4240,4176,-15188
8934,493,483,499,15600,-5444,3420,4176,4104,-15124
8940,493,485,502,15580,-5492,3304,4308,4084,-15152
8946,493,488,505,15580,-5476,3192,4188,4084,-15176
8951,493,490,506,15592,-5512,3404,4168,4112,-15268
8957,493,491,507,15620,-5364,3044,4220,4072,-15304
8963,493,494,506,15576,-5444,3180,4276,4068,-15112
8969,493,495,507,15556,-5508,3216,4228,4020,-15196
8974,493,495,506,15616,-5452,3376,4316,4116,-15300
8980,493,496,510,15540,-5452,3220,4172,4160,-15152
8985,493,498,509,15604,-5420,3320,4444,4180,-15148
8991,493,501,509,15584,-5380,3384,4396,4200,-15232
8997,493,503,510,15540,-5404,3328,4336,4236,-15164
9003,493,504,511,15592,-5496,3276,4268,4220,-15088
9009,493,504,511,15684,-5480,3284,4324,4184,-15112
9014,493,505,510,15472,-5492,3320,4348,4056,-15084
9020,493,506,512,15604,-5540,3300,4284,4136,-15252
9025,493,505,512,15608,-5516,3292,4348,4144,-15144
9031,493,505,510,15580,-5384,3208,4224,4004,-15104
9037,493,506,511,15620,-5460,3300,4368,4092,-15244
9042,493,505,511,15648,-5444,3244,4460,4036,-15200
9049,493,502,509,15612,-5448,3308,4336,4156,-15048
9054,493,497,504,15516,-5476,3272,4312,4028,-15272
9060,493,493,504,15540,-5520,3232,4288,4092,-15248
9065,493,490,502,15500,-5468,3348,4224,4064,-15256
9071,493,489,499,15572,-5468,3252,4280,4196,-15256
9076,493,487,499,15608,-5436,3208,4304,4188,-14980
9082,493,485,493,15532,-5492,3320,4372,4208,-15124
9089,493,486,496,15576,-5528,3528,4352,4292,-15200
9094,493,487,497,15508,-5432,3244,4204,4176,-15116
9100,493,488,494,15612,-5496,3228,4248,4192,-15268
9105,493,488,495,15560,-5464,3332,4288,4256,-15224
9111,493,489,498,15520,-5552,3104,4216,4240,-15368
9116,493,489,495,15616,-5460,3224,4244,4180,-15152
9122,493,489,495,15528,-5448,3100,4216,4092,-15156
9127,493,491,499,15520,-5520,3288,4248,4124,-15356
9134,493,493,500,15540,-5500,3288,4240,4160,-15184
9140,493,495,498,15460,-5448,3152,4312,4044,-15304
9145,493,496,500,15536,-5456,3320,4296,4104,-15232
9151,493,497,503,15508,-5504,3384,4348,4116,-15184
9156,493,498,501,15524,-5492,3108,4336,4052,-15104
9162,493,499,499,15660,-5492,3288,4292,4208,-15204
9167,493,501,500,15560,-5432,3224,4268,4072,-15020
9174,493,501,501,15580,-5436,3248,4372,4196,-15060
9179,493,501,502,15532,-5496,3284,4408,4088,-15196
9185,493,502,504,15628,-5504,3232,4276,4124,-15092
9191,493,502,506,15560,-5472,3152,4320,4164,-15208
9196,493,502,507,15616,-5416,3184,4400,4148,-15184
9202,494,502,508,15644,-5480,3240,4280,4108,-15316
9207,494,503,505,15620,-5544,3220,4300,4204,-15232
9213,494,505,503,15556,-5464,3356,4336,4100,-15248
9219,494,504,502,15556,-5388,3360,4276,4120,-15124
9225,494,505,504,15532,-5500,3276,4264,4044,-15280
9230,494,504,505,15632,-5520,3344,4248,4152,-15256
9236,494,505,504,15484,-5488,3296,4236,4092,-15160
9242,494,504,504,15488,-5480,3316,4248,4140,-15112
9247,494,505,506,15608,-5428,3204,4232,4088,-15092
9253,494,505,504,15636,-5496,3232,4264,4080,-15256
9259,494,503,505,15528,-5464,3264,4348,4104,-15128
9265,494,503,506,15492,-5468,3236,4192,4192,-15216
9270,494,504,507,15568,-5436,3276,4232,4088,-15116
9276,494,505,505,15484,-5444,3416,4296,4084,-15116
9282,494,504,508,15624,-5508,3304,4292,4176,-15176
9287,494,505,506,15644,-5576,3056,4520,4092,-15176
9293,494,505,505,15556,-5432,3196,4328,4068,-15300
9298,494,504,502,15680,-5416,3388,4292,4108,-15164
9305,494,502,502,15544,-5460,3280,4328,4100,-15124
9310,494,502,506,15532,-5580,3100,4320,4052,-15296
9316,494,505,502,15568,-5528,3324,4324,4136,-15136
9321,494,506,503,15456,-5484,3336,4344,4164,-15180
9327,494,507,503,15584,-5400,3304,4316,4140,-15216
9333,494,507,503,15572,-5488,3436,4212,4212,-15272
9338,494,507,505,15668,-5524,3164,4232,4256,-15204
9345,494,506,505,15512,-5380,3368,4296,4200,-15064
9350,494,506,505,15460,-5528,3140,4264,4192,-15252
9356,494,507,508,15656,-5448,3260,4108,4044,-15204
9361,494,509,511,15640,-5492,3268,4236,4100,-15256
9367,494,508,510,15632,-5308,3196,4300,4204,-15072
9372,494,507,509,15596,-5436,3240,4264,4244,-15196
9378,494,507,509,15572,-5436,3240,4276,4192,-15196
9384,494,509,515,15528,-5464,3304,4288,4124,-15172
9390,494,513,515,15572,-5460,3288,4312,4120,-15164
9396,494,519,512,15560,-5412,3304,4260,4308,-15332
9401,494,519,511,15620,-5404,3136,4340,4152,-15324
9407,494,519,514,15572,-5432,3388,4332,4156,-15212
9412,495,516,513,15564,-5456,3352,4380,4244,-15188
9418,495,509,508,15548,-5476,3284,4308,4124,-15204
9423,495,507,503,15612,-5488,3240,4264,4244,-15220
9430,495,503,508,15608,-5516,3408,4248,4192,-15236
9436,495,502,506,15552,-5540,3180,4376,4148,-15184
9441,495,502,500,15580,-5464,3384,4232,4116,-15180
9447,495,503,501,15628,-5504,3248,4188,4088,-15172
9452,495,503,502,15608,-5500,3280,4320,4016,-15148
9458,495,502,502,15572,-5456,3296,4244,4136,-15252
9463,496,501,502,15520,-5360,3244,4200,4072,-15156
9469,496,502,502,15596,-5460,3304,4308,4104,-15108
9476,496,501,504,15480,-5528,3328,4256,4092,-15168
9481,496,500,506,15560,-5472,3088,4284,4132,-15136
9487,496,501,509,15472,-5532,3260,4332,4096,-15004
9492,496,501,501,15608,-5392,3248,4404,4172,-15152
9498,496,501,500,15560,-5416,3200,4240,4100,-15300
9503,496,502,503,15680,-5448,3236,4336,4124,-15328
9509,496,501,504,15528,-5480,3204,4304,4216,-15228
9515,496,487,499,15648,-5448,3360,4384,4320,-14960
9521,496,450,495,15584,-5388,3336,4392,4164,-15204
9527,496,428,499,15560,-5472,3304,4356,4208,-15052
9532,496,459,511,15572,-5492,3280,4332,4168,-15092
9538,496,555,534,15608,-5436,3332,4324,4096,-15304
9543,496,690,557,15560,-5460,3256,4344,4084,-15296
9549,497,812,578,15656,-5512,3264,4220,4076,-15216
9554,497,846,578,15624,-5408,3264,4264,4060,-15224
9561,497,781,552,15624,-5568,3232,4296,4096,-15200
9566,497,658,520,15616,-5488,3368,4312,4048,-15292
9572,497,544,494,15592,-5452,3328,4340,4096,-15160
9578,497,475,484,15488,-5500,3276,4256,4020,-15216
9583,497,445,486,15576,-5460,2952,4300,4180,-15168
9589,497,433,490,15448,-5464,3172,4316,4116,-15028
9594,497,432,494,15588,-5448,3352,4288,4124,-14996
9601,497,436,493,15612,-5456,3244,4392,4140,-14928
9606,497,441,493,15552,-5416,3296,4300,4204,-15120
9612,497,446,497,15544,-5520,3232,4312,4192,-15300
9617,497,450,499,15480,-5436,3284,4436,4128,-15180
9623,497,453,496,15608,-5416,3200,4412,4100,-15028
9629,497,456,495,15668,-5472,3408,4264,4116,-15120
9634,497,459,497,15604,-5472,3388,4208,4224,-15276
9640,497,462,501,15576,-5564,3224,4308,4168,-15248
9646,497,465,504,15544,-5548,3300,4300,4040,-15180
9652,497,468,500,15548,-5516,3224,4288,4104,-15316
9657,498,472,502,15524,-5524,3044,4288,4136,-15320
9663,498,476,504,15692,-5464,3172,4288,4036,-15112
9669,498,479,501,15496,-5432,3392,4264,4060,-15128
9674,498,484,502,15508,-5416,3356,4220,4140,-15084
9680,498,486,503,15580,-5424,3320,4296,4120,-15116
9686,498,487,503,15640,-5448,3216,4312,4112,-15184
9692,498,489,505,15556,-5456,3352,4364,4108,-15172
9697,498,493,504,15516,-5436,3280,4224,4092,-15152
9703,498,494,508,15648,-5340,3324,4300,4152,-15176
9708,498,494,508,15584,-5524,3324,4200,4100,-15268
9714,498,495,514,15588,-5412,3188,4148,4176,-15168
9720,498,498,510,15564,-5484,3492,4248,4168,-15164
9725,498,499,504,15428,-5472,3188,4308,4136,-15132
9732,498,501,505,15616,-5548,3208,4272,4240,-15176
9737,498,503,508,15560,-5436,3216,4352,4136,-15316
9743,498,505,513,15520,-5468,3248,4280,4172,-15208
9748,498,507,514,15484,-5376,3236,4300,4028,-15112
9754,498,507,511,15684,-5516,3316,4392,4100,-15216
9759,498,507,513,15588,-5488,3076,4396,4056,-15216
9765,498,508,514,15524,-5560,3160,4308,4072,-15164
9772,498,507,512,15580,-5556,3380,4344,4104,-15132
9777,498,509,515,15460,-5364,3236,4432,4140,-14984
9783,498,510,513,15576,-5428,3260,4336,4024,-15244
9788,498,509,510,15532,-5492,3212,4344,4156,-15216
9794,498,508,510,15520,-5384,3268,4288,4052,-15232
9799,498,506,507,15512,-5532,3268,4336,4136,-15284
9805,498,504,507,15584,-5444,3276,4176,4108,-15116
9810,498,501,506,15508,-5532,3232,4364,4148,-15136
9817,498,498,503,15544,-5428,3360,4292,4160,-15148
9823,498,495,501,15516,-5500,3268,4304,4000,-15140
9828,498,493,501,15616,-5544,3256,4200,4160,-15064
9834,498,492,505,15496,-5552,3220,4196,4164,-15200
9839,498,493,498,15708,-5520,3188,4188,4072,-15204
9845,498,494,496,15536,-5428,3200,4180,4212,-15224
9850,498,495,501,15536,-5476,3292,4364,4308,-15172
9857,499,494,500,15632,-5380,3232,4352,4288,-15076
9863,499,494,495,15664,-5480,3164,4348,4152,-15268
9868,499,496,494,15656,-5444,3288,4248,4156,-15148
9874,499,498,498,15532,-5416,3300,4272,4068,-15076
9879,499,498,499,15628,-5444,3276,4284,4332,-15116
9885,499,499,501,15640,-5468,3412,4384,4200,-15180
9890,499,499,500,15532,-5392,3404,4212,4072,-15064
9896,499,501,502,15516,-5444,3196,4356,4116,-15284
9902,499,502,502,15592,-5520,3340,4340,4048,-15092
9908,499,501,501,15584,-5532,3116,4328,4088,-15308
9914,499,502,504,15492,-5528,3232,4304,3984,-15120
9919,499,505,506,15672,-5504,3324,4336,4024,-15224
9925,499,507,507,15524,-5416,3148,4400,4064,-15248
9930,499,507,515,15564,-5468,3248,4268,4088,-15292
9936,499,508,502,15536,-5444,3272,4328,4104,-15036
9942,499,510,498,15616,-5432,3404,4232,4136,-15012
9948,499,509,500,15600,-5460,3332,4380,4180,-15116
9953,499,509,502,15528,-5400,3188,4372,4160,-15100
9959,499,508,505,15520,-5400,3416,4260,4096,-15144
9965,499,508,509,15548,-5420,3232,4360,4072,-15260
9970,499,509,507,15540,-5488,3376,4372,4144,-15104
9976,499,509,505,15652,-5432,3264,4340,4072,-15220
9981,499,510,506,15528,-5512,3216,4272,4004,-15128
9988,499,511,506,15556,-5484,3348,4204,4244,-15132
9993,499,512,510,15528,-5508,3244,4224,4088,-15068
9999,499,512,509,15528,-5432,3252,4272,4104,-15216
10005,499,512,506,15612,-5464,3088,4252,4088,-15196
10010,499,510,506,15536,-5472,3168,4332,4124,-15144
10016,499,510,506,15612,-5460,3120,4252,4140,-15120
10021,499,511,505,15536,-5536,3496,4372,4228,-15032
10028,499,511,505,15576,-5444,3140,4356,4192,-15248
10033,499,510,509,15584,-5508,3320,4352,4188,-15176
10039,499,509,507,15680,-5464,3344,4284,4160,-15116
10044,499,511,507,15604,-5484,3248,4236,4132,-15016
10050,499,510,505,15620,-5396,3276,4348,4184,-15248
10056,499,510,501,15596,-5496,3200,4252,4100,-15148
10061,499,509,506,15628,-5468,3256,4348,4192,-15176
10067,499,510,507,15532,-5476,3140,4296,4100,-15168
10073,499,512,505,15640,-5488,3356,4280,4152,-15208
10079,499,513,506,15596,-5448,3352,4316,4112,-15080
10084,499,514,506,15580,-5468,3276,4256,4068,-15044
10090,499,514,509,15600,-5488,3232,4236,4148,-15096
10095,499,515,510,15596,-5436,3168,4324,4156,-15108
10101,499,515,514,15612,-5432,3256,4236,4200,-15232
10107,499,516,514,15524,-5516,3132,4208,4156,-15104
10113,499,518,514,15524,-5500,3316,4288,4116,-15336
10119,499,521,511,15600,-5532,3196,4216,4184,-15252
10124,499,524,509,15508,-5484,3160,4392,4012,-15188
10130,499,522,512,15592,-5464,3368,4296,4020,-15260
10135,499,520,512,15660,-5504,3216,4256,4136,-15100
10141,499,514,507,15540,-5404,3296,4356,4140,-15176
10146,499,511,504,15604,-5492,3300,4432,4092,-15340
10152,499,509,501,15552,-5456,3148,4312,4068,-15276
10159,499,505,501,15560,-5492,3236,4184,4156,-15292
10164,499,503,504,15560,-5588,3416,4284,4224,-15064
10170,499,503,505,15496,-5456,3204,4252,4152,-15100
10175,499,504,507,15596,-5448,3160,4248,4076,-15132
10181,499,504,505,15584,-5524,3312,4284,4092,-15192
10186,499,504,503,15624,-5524,3252,4296,4184,-15300
10192,499,506,502,15608,-5432,3320,4344,4152,-15128
10199,499,505,502,15572,-5424,3196,4256,4156,-15220
10204,500,505,510,15644,-5352,3148,4328,4116,-15308
10210,500,506,503,15668,-5464,3168,4224,4292,-15000
10215,500,507,500,15576,-5584,3404,4308,4116,-15236
10221,500,506,502,15584,-5420,3236,4332,4124,-15220
10226,500,505,505,15596,-5512,3328,4244,4152,-15208
10232,500,502,507,15552,-5508,3184,4244,4024,-15200
10237,500,491,503,15576,-5436,3132,4348,4088,-15192
10244,500,461,502,15552,-5468,3220,4316,4092,-15112
10250,500,438,502,15492,-5428,3248,4388,4092,-15032
10255,500,458,508,15568,-5512,3336,4332,4084,-15236
10261,500,542,528,15560,-5540,3256,4396,4120,-15176
10266,500,660,552,15576,-5436,3272,4364,4076,-15192
10272,500,774,573,15512,-5456,3364,4364,4084,-15304
10277,500,806,573,15612,-5532,3316,4344,4200,-15200
10284,500,740,549,15624,-5544,3192,4372,4204,-15180
10289,500,630,519,15604,-5528,3232,4348,4172,-15132
10295,500,538,496,15584,-5460,3260,4344,4180,-15132
10301,501,482,490,15568,-5512,3336,4392,4160,-15156
10306,501,454,487,15596,-5400,3356,4388,4312,-15220
10312,501,444,489,15612,-5464,3300,4456,4192,-15212
10317,501,444,492,15572,-5480,3184,4280,4068,-15192
10323,501,446,495,15556,-5444,3436,4336,4228,-15172
10329,501,451,494,15544,-5488,3328,4332,4156,-15120
10335,501,458,495,15588,-5536,3368,4336,4180,-15256
10340,501,464,496,15576,-5492,3304,4380,4172,-15312
10346,501,469,501,15640,-5500,3240,4360,4284,-15216
10352,501,471,502,15592,-5520,3184,4356,4144,-15184
10357,501,473,502,15640,-5484,3300,4388,4068,-15008
10363,501,475,502,15516,-5460,3248,4100,4048,-15132
10369,501,479,501,15564,-5360,3140,4188,3952,-15172
10375,501,482,507,15556,-5428,3304,4260,3912,-15160
10380,501,485,502,15692,-5476,3340,4252,3980,-15140
10386,501,486,505,15652,-5464,3316,4384,4116,-15252
10392,501,488,505,15648,-5484,3420,4248,4192,-15204
10397,501,490,503,15636,-5484,3412,4344,4164,-15192
10403,501,493,504,15560,-5568,3272,4316,4132,-15116
10408,501,497,507,15572,-5528,3368,4408,4184,-15132
10415,501,501,509,15664,-5440,3196,4288,4112,-15104
10420,501,502,508,15548,-5560,3264,4296,4284,-15000
10426,501,503,509,15648,-5504,3340,4312,4116,-15224
10431,501,507,509,15568,-5488,3148,4348,4288,-15140
10437,501,509,508,15608,-5484,3300,4296,4184,-15144
10443,502,509,509,15524,-5500,3240,4208,4188,-15208
10448,501,510,517,15576,-5340,3316,4416,4024,-15172
10455,501,513,515,15492,-5404,3264,4360,4188,-15136
10460,502,517,515,15496,-5508,3304,4296,4072,-15192
10466,502,521,511,15580,-5384,3360,4380,4104,-15128
10471,502,524,512,15612,-5488,3316,4244,4136,-15268
10477,502,524,516,15608,-5504,3364,4316,4064,-15196
10482,502,525,517,15648,-5440,3316,4336,4104,-15252
10488,502,524,513,15504,-5472,3332,4248,4032,-15120
10494,502,522,513,15632,-5460,3344,4304,4224,-15156
10500,502,523,511,15536,-5524,3392,4332,4144,-15244
10506,502,522,511,15592,-5484,3312,4368,4104,-15100
10511,502,520,513,15600,-5476,3348,4440,4124,-15264
10517,502,517,511,15516,-5544,3368,4304,4120,-15180
10522,502,512,508,15652,-5544,3332,4328,4132,-15228
10528,502,506,508,15548,-5532,3340,4296,4152,-15116
10534,502,499,510,15608,-5528,3244,4220,4176,-15184
10540,502,494,506,15524,-5452,3312,4276,4160,-15120
10546,502,490,505,15640,-5424,3128,4348,4148,-15120
10551,502,489,505,15588,-5488,3344,4232,4160,-15232
10557,502,487,497,15604,-5364,3316,4272,4328,-15136
10562,502,486,496,15608,-5552,3164,4284,4172,-15132
10568,502,486,495,15492,-5428,3300,4236,4188,-15208
10573,502,488,496,15592,-5500,3228,4248,4188,-15200
10579,502,489,498,15636,-5484,3232,4224,4140,-15172
10586,502,491,500,15512,-5516,3340,4332,4048,-15052
10591,502,493,499,15572,-5428,3284,4352,4100,-15104
10597,502,493,500,15548,-5584,3316,4332,4192,-15256
10602,502,493,500,15656,-5468,3324,4380,4180,-15164
10608,502,495,503,15624,-5472,3360,4352,4208,-15180
10613,502,497,503,15572,-5520,3292,4408,4108,-15108
10619,503,499,499,15624,-5584,3312,4416,4204,-15256
10625,503,501,498,15504,-5468,3272,4312,4208,-15104
10631,503,503,502,15572,-5472,3376,4380,4136,-15248
10637,503,504,507,15480,-5504,3248,4392,4252,-15128
10642,503,506,504,15572,-5520,3088,4284,4184,-15208
10648,503,507,505,15628,-5496,3328,4336,4168,-15120
10653,503,507,509,15584,-5368,3196,4292,4156,-15228
10659,503,506,506,15508,-5572,3268,4240,4160,-15180
10664,503,508,504,15536,-5476,3404,4296,4088,-15108
10671,503,510,507,15668,-5472,3320,4372,4096,-15080
10677,504,510,506,15548,-5448,3244,4164,4096,-15240
10682,504,510,506,15492,-5572,3128,4440,4108,-15144
10688,504,511,504,15556,-5524,3316,4276,4108,-15056
10693,504,511,505,15596,-5436,3364,4284,4020,-15092
10699,504,511,512,15584,-5476,3420,4312,4000,-15120
10704,504,511,506,15556,-5448,3340,4284,4144,-15164
10711,504,510,504,15472,-5444,3224,4264,4192,-15096
10716,504,511,502,15520,-5368,3308,4320,4152,-15084
10722,504,511,501,15560,-5532,3016,4284,4124,-15192
10728,504,510,502,15576,-5444,3304,4268,4252,-15156
10733,504,509,504,15512,-5476,3164,4380,4168,-15032
10739,504,509,507,15564,-5428,3340,4292,4136,-15332
10744,504,509,507,15580,-5464,3304,4232,4188,-15216
10750,504,508,508,15556,-5448,3124,4372,4096,-15256
10756,504,508,508,15552,-5468,3492,4456,4144,-15220
10762,504,511,512,15580,-5448,3144,4284,4080,-15104
10767,504,511,515,15628,-5516,3232,4260,4144,-15084
10773,504,511,516,15528,-5408,3396,4260,4056,-15208
10779,504,512,511,15580,-5488,3516,4188,4192,-15284
10784,504,516,510,15632,-5396,3240,4328,4080,-15116
10790,504,518,512,15512,-5464,3340,4356,4092,-15076
10796,504,522,508,15640,-5516,3176,4236,4120,-15196
10802,504,524,511,15624,-5520,3288,4236,4168,-15184
10807,505,523,513,15528,-5528,3348,4308,4204,-15276
10813,505,522,512,15580,-5464,3292,4320,4184,-15160
10818,505,516,509,15588,-5444,3372,4364,4236,-15056
10824,505,512,507,15588,-5400,3408,4148,4228,-15276
10830,505,508,503,15508,-5436,3228,4384,4156,-15212
10835,505,504,500,15568,-5576,3300,4284,4196,-15156
10842,505,503,505,15464,-5464,3432,4292,4108,-15080
10847,505,502,504,15528,-5452,3156,4236,4144,-15224
10853,505,503,500,15616,-5448,3220,4284,4160,-15148
10858,505,504,499,15564,-5332,3256,4324,4168,-15280
10864,505,504,500,15532,-5480,3340,4284,4072,-15300
10870,505,504,502,15600,-5396,3200,4320,4124,-15184
10875,505,504,502,15596,-5560,3288,4220,4160,-15108
10882,505,503,500,15580,-5464,3140,4328,4144,-15248
10887,505,504,501,15576,-5452,3380,4340,4108,-15152
10893,505,505,502,15620,-5484,3232,4420,4092,-15228
10898,505,505,504,15532,-5384,3292,4340,4020,-15040
10904,506,506,504,15528,-5572,3212,4260,4148,-15080
10909,506,505,503,15560,-5416,3244,4288,4236,-15156
10915,506,498,503,15576,-5432,3268,4340,4132,-15048
10921,506,477,503,15556,-5472,3396,4328,4124,-15252
10927,506,444,501,15640,-5540,3264,4324,4180,-15204
10933,506,436,506,15524,-5484,3252,4312,4316,-15116
10938,506,492,524,15592,-5444,3260,4240,4200,-15120
10944,506,600,543,15492,-5480,3272,4260,4088,-15036
10949,506,740,563,15564,-5436,3196,4240,4144,-15116
10955,506,827,575,15576,-5436,3236,4260,4152,-15096
10960,506,813,560,15564,-5536,3276,4256,4164,-15220
10967,506,710,531,15648,-5404,3324,4224,4156,-15060
10973,506,591,502,15568,-5436,3236,4276,4248,-15148
10978,506,503,488,15664,-5460,3056,4280,4240,-15288
10984,506,458,488,15476,-5444,3264,4148,4104,-15204
10989,506,442,490,15544,-5400,3160,4208,4192,-15224
10995,506,439,493,15544,-5388,3268,4368,4152,-15200
11000,506,439,493,15504,-5388,3264,4228,4124,-15144
11006,506,443,494,15660,-5484,3412,4372,4156,-15184
11012,506,448,494,15528,-5564,3376,4352,4208,-15200
11018,506,453,496,15604,-5464,3296,4316,4088,-14972
11024,506,459,502,15608,-5484,3256,4340,4168,-15200
11029,506,464,499,15512,-5412,3252,4380,4060,-15344
11035,506,466,499,15532,-5480,3308,4304,4104,-15188
11040,506,469,498,15576,-5480,3236,4248,4176,-15176
11046,506,474,501,15584,-5548,3256,4352,4152,-15112
11052,506,478,501,15504,-5484,3408,4256,4172,-15224
11058,506,481,501,15604,-5516,3252,4280,4124,-15176
11064,506,484,501,15592,-5480,3388,4220,4168,-15156
11069,506,486,505,15636,-5524,3160,4380,4236,-15200
11075,506,488,508,15584,-5516,3276,4264,4160,-15180
11080,506,490,506,15524,-5488,3188,4396,4228,-15080
11086,506,493,508,15508,-5444,3288,4300,4284,-15204
11091,506,495,507,15636,-5512,3200,4232,4076,-15152
11098,506,497,505,15524,-5552,3376,4280,4160,-15212
11103,507,498,508,15620,-5492,3344,4248,4192,-15220
11109,507,499,511,15556,-5612,3324,4336,4176,-15076
11115,507,501,513,15612,-5560,3284,4192,4160,-15028
11120,507,502,512,15608,-5452,3276,4320,4072,-15144
11126,507,505,514,15480,-5432,3344,4304,4200,-15160
11131,507,507,514,15560,-5352,3240,4192,4244,-15148
11138,507,507,514,15620,-5516,3392,4324,4140,-15104
11143,507,512,509,15564,-5384,3168,4364,4140,-15144
11149,507,515,510,15612,-5504,3288,4316,4204,-15012
11154,507,516,513,15632,-5420,3376,4236,4152,-15000
11160,507,518,513,15572,-5540,3432,4292,4208,-15144
11166,508,518,514,15568,-5504,3288,4348,4132,-15224
11171,508,517,515,15576,-5524,3280,4292,4088,-15132
11177,508,515,518,15516,-5528,3100,4324,4196,-15120
11183,508,513,515,15600,-5444,3480,4312,4124,-15000
11189,508,510,509,15592,-5504,3348,4316,4076,-15220
11194,508,510,510,15544,-5436,3224,4364,4100,-15176
11200,508,509,511,15596,-5456,3264,4316,4032,-15136
11205,508,505,510,15520,-5512,3336,4260,4060,-15200
11211,508,500,506,15512,-5476,3152,4272,4160,-15260
11217,508,495,502,15676,-5556,3268,4292,4128,-15064
11223,508,491,501,15536,-5492,3280,4392,4124,-15104
11229,508,488,501,15568,-5468,3436,4248,4216,-15176
11234,508,489,502,15596,-5364,3360,4392,4252,-15204
11240,508,490,496,15632,-5404,3160,4328,4224,-15112
11245,508,491,494,15584,-5424,3448,4360,4288,-15144
11251,508,490,494,15464,-5416,3264,4232,4120,-15132
11257,508,490,497,15608,-5540,3240,4144,4208,-15324
11262,508,493,500,15620,-5496,3264,4200,4328,-14996
11269,508,495,501,15588,-5444,3200,4288,4080,-15208
11274,508,495,504,15616,-5460,3460,4288,4168,-15168
11280,508,496,499,15556,-5456,3344,4252,4152,-15180
11285,508,497,497,15516,-5432,3288,4284,4080,-15220
11291,509,499,502,15588,-5428,3316,4248,4164,-15144
11296,509,499,504,15524,-5532,3268,4224,4088,-15152
11302,509,498,501,15508,-5504,3176,4300,4044,-15232
11309,509,500,501,15604,-5380,3220,4300,4184,-15164
11314,509,504,503,15596,-5508,3376,4292,4220,-15136
11320,509,507,503,15532,-5416,3304,4400,4208,-15172
11325,509,508,502,15532,-5488,3276,4432,4188,-15156
11331,509,509,503,15572,-5456,3300,4424,4256,-15152
11336,509,508,505,15576,-5492,3264,4352,4284,-15064
11342,509,507,508,15556,-5532,3456,4356,4204,-15300
11347,509,507,510,15560,-5432,3440,4420,4108,-15248
11354,510,505,510,15568,-5452,3092,4372,4068,-15124
11360,510,507,506,15584,-5464,3196,4240,4124,-15092
11365,510,509,508,15672,-5356,3352,4240,4240,-15264
11371,510,510,505,15476,-5456,3248,4240,4124,-15308
11376,510,510,506,15568,-5428,3148,4264,4108,-15148
11382,510,509,508,15580,-5504,3340,4188,4080,-15248
11387,510,508,510,15528,-5520,3204,4268,4160,-15128
11394,510,508,508,15568,-5452,3388,4344,4240,-15152
11400,510,509,510,15552,-5404,3428,4276,4124,-15124
11405,510,509,506,15600,-5432,3240,4240,4200,-15220
11411,510,509,508,15480,-5504,3296,4268,4240,-15220
11416,510,509,508,15608,-5512,3252,4320,4096,-15228
11422,510,508,508,15544,-5552,3132,4300,4204,-15320
11427,510,508,504,15620,-5472,3268,4304,4168,-15144
11433,510,508,507,15584,-5436,3188,4328,4156,-15160
11439,510,508,503,15556,-5564,3148,4316,4172,-15120
11445,510,507,500,15516,-5524,3324,4392,4224,-15056
11451,511,506,502,15628,-5460,3252,4320,4188,-15048
11456,511,508,505,15544,-5504,3304,4312,4084,-15168
11462,511,508,505,15492,-5508,3148,4212,4012,-15132
11467,511,510,506,15512,-5540,3336,4288,4100,-15084
11473,511,510,508,15500,-5396,3292,4248,4016,-15168
11479,511,511,509,15580,-5520,3188,4168,4160,-15136
11485,511,510,511,15520,-5472,3436,4340,4092,-15212
11490,511,510,510,15628,-5488,3124,4292,4100,-15200
11496,511,511,517,15552,-5468,3116,4224,4132,-15168
11502,511,514,512,15580,-5380,3276,4268,4248,-15104
11507,511,516,512,15548,-5384,3412,4372,4176,-15192
11513,511,519,513,15624,-5584,3244,4252,4296,-15140
11518,511,521,511,15612,-5488,3344,4364,4272,-15276
11525,511,521,509,15616,-5552,3452,4260,4168,-15364
11530,511,521,512,15648,-5528,3416,4368,4392,-15132
11536,512,515,511,15580,-5420,3192,4400,4176,-15036
11541,512,508,505,15540,-5440,3308,4316,4120,-15096
11547,512,507,503,15492,-5460,3428,4316,4160,-15132
11553,512,505,503,15688,-5460,3236,4288,4100,-15152
11558,512,502,506,15524,-5556,3316,4300,4120,-15160
11565,512,502,505,15512,-5480,3436,4408,4192,-15076
11570,512,501,508,15524,-5500,3344,4376,4156,-15100
11576,512,502,508,15564,-5512,3404,4304,4140,-15244
11581,513,500,505,15720,-5468,3168,4328,3968,-15224
11587,513,499,502,15548,-5444,3316,4348,4104,-15056
11592,513,501,504,15456,-5560,3284,4352,4160,-15108
11598,513,502,501,15524,-5460,3264,4324,4180,-15128
11604,513,503,501,15524,-5424,3356,4316,4120,-15132
11610,513,504,504,15592,-5416,3204,4180,4148,-15204
11616,513,505,503,15604,-5484,3392,4220,4112,-15092
11621,513,506,505,15652,-5464,3112,4284,4124,-15104
11627,513,504,502,15492,-5492,3372,4224,4100,-15048
11632,513,499,501,15476,-5316,3196,4376,4156,-15180
11638,513,482,498,15596,-5544,3216,4276,4048,-15236
11643,513,447,495,15544,-5456,3184,4332,4236,-15036
11650,513,432,502,15584,-5468,3232,4316,4176,-15112
11656,513,476,516,15616,-5464,3372,4264,4152,-15152
11661,513,580,534,15648,-5516,3164,4364,4280,-15168
11667,513,725,556,15464,-5420,3176,4264,4236,-15092
11672,513,837,575,15580,-5460,3232,4324,4124,-15192
11678,513,859,573,15504,-5404,3224,4264,4196,-15096
11683,513,772,543,15512,-5416,3244,4316,4160,-15236
11689,513,639,507,15488,-5504,3124,4360,4088,-15160
11695,513,526,487,15528,-5516,3236,4300,4108,-15132
11701,513,463,485,15572,-5360,3272,4268,4204,-15240
11707,513,440,487,15556,-5520,3404,4300,4172,-15132
11712,512,433,492,15592,-5576,3332,4200,4264,-15124
11718,512,433,493,15608,-5620,3212,4240,4076,-15204
11723,512,437,492,15552,-5508,3344,4328,4136,-15032
11729,512,441,490,15600,-5440,3420,4316,4040,-15192
11735,512,444,493,15552,-5396,3300,4336,4120,-15252
11741,512,448,498,15576,-5432,3316,4264,4200,-15176
11747,512,453,498,15660,-5408,3232,4272,4004,-15144
11752,512,458,499,15576,-5388,3240,4212,4084,-15136
11758,512,462,499,15560,-5564,3296,4264,4200,-15168
11763,512,466,496,15532,-5436,3296,4280,4104,-15092
11769,512,469,496,15524,-5448,3460,4192,4128,-15224
11774,512,471,497,15596,-5428,3412,4268,4156,-15104
11781,512,475,497,15508,-5560,3372,4320,4176,-15184
11786,512,477,501,15592,-5424,3424,4284,4224,-15128
11792,512,481,503,15584,-5556,3236,4324,4308,-15220
11798,512,484,503,15616,-5452,3404,4280,4204,-14908
11803,512,486,502,15592,-5500,3228,4160,4160,-15220
11809,512,488,504,15648,-5508,3164,4276,4192,-15068
11814,512,491,504,15588,-5436,3240,4380,4096,-15160
11821,512,495,507,15544,-5540,3256,4216,4140,-15220
11826,512,495,506,15448,-5464,3324,4232,4168,-15264
11832,512,496,504,15664,-5500,3320,4308,4156,-15260
11837,512,497,506,15608,-5500,3216,4368,4196,-15156
11843,512,500,507,15572,-5452,3524,4324,4184,-15240
11849,512,502,509,15564,-5436,3232,4240,4168,-15192
11854,512,503,509,15564,-5472,3376,4304,4100,-15140
11860,512,505,509,15576,-5512,3452,4316,4168,-15132
11866,512,508,515,15612,-5484,3360,4216,4104,-15292
11872,512,510,512,15596,-5472,3184,4244,4176,-15348
11877,512,511,510,15572,-5464,3244,4288,4128,-15188
11883,512,511,514,15572,-5448,3404,4336,4012,-15304
11888,512,511,512,15640,-5448,3216,4368,4176,-15164
11894,512,511,510,15512,-5488,3344,4268,4068,-15104
11900,512,513,513,15600,-5448,3456,4304,4148,-15216
11906,512,514,514,15580,-5408,3184,4312,4120,-15236
11912,512,513,511,15544,-5500,3312,4296,4044,-15200
11917,512,510,511,15492,-5456,3096,4276,4152,-15116
11923,512,505,511,15556,-5448,3196,4288,4208,-15200
11928,512,502,511,15584,-5404,3224,4368,4136,-15128
11934,512,501,507,15564,-5476,3204,4352,4196,-15144
11939,512,499,501,15528,-5404,3228,4228,4160,-15096
11945,512,496,502,15572,-5492,3204,4320,4264,-15212
11952,512,495,500,15516,-5472,3172,4208,4216,-15144
11957,512,493,500,15560,-5476,3304,4272,4216,-15100
11963,512,492,496,15544,-5432,3400,4324,4148,-15088
11968,512,492,498,15548,-5504,3224,4268,4144,-15296
11974,512,494,498,15548,-5404,3304,4264,4148,-15184
11979,512,495,499,15560,-5452,3164,4304,4244,-15208
11985,512,496,501,15440,-5516,3232,4248,4068,-15000
11991,512,497,499,15544,-5456,3264,4352,4136,-15208
11997,512,498,498,15616,-5412,3304,4252,4188,-15232
12003,512,499,502,15580,-5312,3136,4252,4116,-15232
12008,512,500,501,15560,-5560,3380,4276,4140,-15284
12014,512,501,500,15692,-5500,3268,4268,4164,-15240
12019,512,501,503,15544,-5424,3404,4308,4156,-15120
12025,512,502,501,15572,-5416,3168,4400,4060,-15112
12030,512,505,500,15608,-5440,3296,4396,4100,-15124
12037,512,506,502,15620,-5500,3208,4236,4068,-15176
12042,512,506,500,15600,-5536,3160,4360,4120,-15212
12048,512,506,503,15588,-5416,3168,4272,4180,-15176
12054,512,507,502,15608,-5448,3296,4344,4128,-15148
12059,512,508,505,15620,-5456,3260,4336,4116,-15188
12065,512,509,503,15576,-5616,3308,4280,4160,-15048
12070,512,508,504,15580,-5524,3236,4236,4064,-15104
12077,512,507,505,15488,-5452,3324,4372,4124,-15048
12082,512,508,505,15544,-5504,3228,4156,4004,-15128
12088,512,509,509,15644,-5460,3248,4256,4156,-15160
12094,512,509,505,15512,-5420,3192,4256,4088,-15196
12099,512,511,507,15532,-5580,3340,4216,4120,-15224
12105,512,512,505,15544,-5440,3280,4252,4140,-15204
12110,512,512,503,15548,-5440,3132,4280,4232,-15120
12116,512,513,506,15636,-5460,3112,4248,4156,-15224
12122,512,513,506,15548,-5484,3036,4324,4088,-15204
12128,512,512,505,15560,-5460,3480,4308,4196,-15028
12133,512,511,506,15528,-5488,3364,4304,4256,-15196
12139,512,507,504,15620,-5440,3232,4156,4176,-15168
12145,512,506,503,15528,-5424,3328,4440,4072,-15048
12150,512,507,502,15592,-5500,3140,4312,4148,-15224
12156,512,508,502,15440,-5564,3236,4352,4136,-15192
12162,512,511,504,15504,-5408,3312,4240,4140,-15272
12168,512,512,506,15500,-5456,3260,4288,4240,-15064
12173,512,512,507,15600,-5492,3240,4384,4212,-15276
12179,512,510,507,15572,-5448,3220,4288,4208,-15144
12184,512,510,506,15568,-5496,3376,4316,4088,-15224
12190,512,510,505,15576,-5496,3180,4356,4140,-15076
12196,512,511,509,15588,-5468,3204,4228,4104,-15000
12201,512,510,508,15560,-5436,3252,4248,4108,-15180
12208,512,510,507,15576,-5440,3308,4208,4144,-15192
12213,512,511,501,15560,-5424,3328,4264,4220,-15132
12219,512,511,505,15572,-5500,3344,4292,4100,-15052
12224,512,510,504,15568,-5512,3188,4224,4188,-15232
12230,513,510,504,15616,-5524,3444,4216,4112,-15364
12235,513,508,505,15628,-5428,3240,4296,4152,-15148
12241,513,508,506,15640,-5412,3284,4288,4288,-15152
12248,513,508,507,15536,-5440,3272,4320,4192,-15160
12253,513,509,506,15608,-5456,3392,4232,4168,-15164
12259,513,510,511,15560,-5480,3260,4376,4188,-15260
12264,513,510,509,15600,-5480,3216,4236,4192,-15196
12270,513,510,508,15600,-5516,3272,4284,4188,-15132
12275,513,511,509,15540,-5508,3168,4304,4032,-15184
12281,513,512,510,15592,-5448,3212,4332,4144,-15072
12286,513,512,513,15656,-5544,3268,4420,4152,-15260
12293,513,510,512,15584,-5392,3140,4316,4196,-15336
12299,513,511,510,15480,-5404,3380,4296,4200,-15176
12304,513,517,510,15628,-5512,3248,4324,4112,-15156
12310,513,522,510,15480,-5512,3288,4332,4148,-15172
12315,513,528,509,15544,-5592,3248,4288,4156,-15116
12321,513,528,511,15468,-5432,3276,4256,4192,-15228
12326,513,525,514,15512,-5472,3184,4212,4112,-14996
12333,513,518,508,15528,-5544,3292,4276,4164,-15276
12338,513,512,504,15648,-5520,3356,4296,4116,-15220
12344,513,507,505,15548,-5420,3348,4236,4200,-15144
12350,513,501,504,15512,-5460,3256,4308,3996,-15212
12355,513,500,502,15576,-5512,3356,4188,4104,-14940
12361,513,500,500,15540,-5468,3376,4272,4076,-15112
12366,513,502,502,15452,-5532,3352,4328,4028,-15152
12372,513,502,504,15560,-5436,3140,4252,4132,-15184
12378,513,501,500,15560,-5572,3204,4308,4160,-15184
12384,513,503,499,15640,-5440,3324,4236,4312,-15104
12389,513,504,503,15592,-5432,3396,4284,4204,-15032
12395,513,504,504,15660,-5484,3244,4340,4108,-15168
12401,513,503,501,15564,-5468,3128,4264,4116,-15192
12406,513,503,503,15624,-5384,3252,4276,4228,-15136
12412,513,504,504,15572,-5404,3148,4272,4100,-15148
12418,513,503,503,15528,-5508,3192,4404,4132,-15140
12424,513,502,505,15472,-5384,3076,4304,4088,-15204
12429,513,497,500,15548,-5488,3192,4336,4148,-14876
12435,513,480,497,15556,-5444,3252,4300,4040,-15192
12440,513,447,497,15616,-5460,3308,4260,4124,-15204
12446,513,430,501,15548,-5460,3176,4176,4136,-15180
12452,513,475,516,15576,-5488,3372,4272,4076,-15152
12457,513,578,538,15556,-5488,3172,4296,4068,-15152
12464,513,723,560,15612,-5488,3224,4268,4024,-15204
12469,513,837,579,15548,-5448,3180,4236,4156,-15112
12475,513,861,575,15568,-5496,3320,4292,4272,-15064
12480,513,775,547,15600,-5500,3340,4356,4188,-15204
12486,513,640,511,15596,-5500,3140,4352,4136,-15140
12491,513,526,492,15596,-5524,3224,4292,4176,-15212
12497,513,461,489,15580,-5340,3248,4348,4188,-15120
12504,513,436,489,15576,-5504,3220,4316,4380,-15140
12509,513,426,491,15544,-5476,3284,4308,4168,-15292
12515,513,427,493,15580,-5436,3328,4248,4228,-15148
12520,513,431,496,15528,-5508,3340,4316,4176,-15152
12526,513,435,495,15636,-5516,3244,4320,4240,-15224
12531,513,439,495,15576,-5572,3312,4340,4100,-15204
12537,513,443,497,15472,-5484,3320,4288,4148,-15188
12542,513,447,496,15732,-5480,3344,4248,4076,-15204
12549,513,452,499,15616,-5444,3344,4288,4104,-15164
12555,513,457,499,15640,-5500,3280,4272,4088,-15076
12560,513,460,498,15580,-5428,3256,4364,4172,-15104
12566,513,463,498,15608,-5532,3248,4232,4148,-15264
12571,513,466,499,15536,-5568,3288,4216,4148,-15124
12577,513,470,500,15576,-5464,3252,4292,4184,-15240
12582,513,473,499,15456,-5500,3376,4364,4188,-15220
12589,513,475,502,15628,-5388,3276,4340,4156,-15124
12594,513,478,504,15576,-5412,3228,4208,4148,-15240
12600,513,480,505,15588,-5504,3292,4276,4128,-15148
12606,513,482,503,15612,-5516,3248,4140,4128,-14956
12611,513,485,503,15592,-5460,3280,4252,4132,-15064
12617,513,488,503,15616,-5508,3280,4324,4088,-15076
12622,513,489,506,15544,-5552,3280,4252,4220,-15112
12628,513,491,506,15528,-5544,3248,4276,4172,-15228
12634,513,494,506,15524,-5528,3368,4292,4196,-15036
12640,513,496,512,15560,-5468,3280,4168,4216,-15140
12645,513,497,512,15464,-5404,3228,4296,4208,-15052
12651,513,500,508,15560,-5492,3292,4312,4248,-15120
12657,513,502,509,15520,-5536,3196,4272,4244,-15240
12662,513,504,510,15560,-5444,3428,4336,4200,-15184
12668,513,507,511,15584,-5508,3184,4404,4128,-15060
12674,513,509,515,15536,-5488,3380,4376,4168,-15248
12680,513,511,514,15604,-5620,3260,4308,4128,-15100
12685,513,511,515,15432,-5408,3432,4324,4120,-15088
12691,513,511,515,15644,-5432,3344,4244,4036,-15080
12696,513,511,513,15584,-5528,3308,4260,4084,-15152
12702,513,510,513,15608,-5476,3272,4232,4040,-15036
12708,513,510,514,15624,-5392,3252,4260,4072,-15256
12713,513,510,510,15516,-5436,3440,4344,4072,-15244
12720,513,509,505,15568,-5480,3132,4344,4100,-15168
12725,513,505,507,15672,-5456,3216,4268,4100,-15312
12731,513,502,506,15592,-5500,3240,4236,4204,-15104
12736,513,497,504,15596,-5404,3428,4312,4164,-15176
12742,513,491,505,15612,-5572,3280,4264,4268,-15132
12747,513,488,499,15532,-5472,3256,4160,4240,-15168
12753,513,488,498,15624,-5500,3308,4284,4228,-15180
12760,513,488,502,15552,-5440,3436,4264,4200,-15160
12765,513,491,500,15688,-5452,3252,4276,4220,-15056
12771,513,492,497,15620,-5472,3244,4276,4200,-15224
12776,513,492,496,15596,-5420,3280,4252,4264,-15096
12782,513,492,498,15580,-5512,3196,4216,4260,-15068
12787,513,493,499,15620,-5368,3316,4244,4108,-15168
12793,513,494,498,15508,-5456,3388,4248,4160,-15032
12800,513,495,496,15480,-5420,3276,4228,4156,-15236
12805,513,496,499,15628,-5476,3248,4408,4172,-15260
12811,513,498,501,15576,-5496,3268,4324,4104,-15176
12816,513,499,503,15536,-5372,3204,4284,4172,-15036
12822,513,499,504,15564,-5540,3312,4328,4124,-15268
12827,513,498,502,15568,-5472,3276,4372,4104,-15276
12833,513,500,500,15624,-5376,3284,4312,4020,-15096
12838,513,502,500,15636,-5400,3232,4388,3964,-15176
12845,513,503,502,15508,-5500,3388,4328,4168,-15168
12851,513,502,503,15568,-5444,3288,4188,4176,-15100
