TimeStamp,ECG Data,EMG Data,Temperature,EMG Data,Acc1 X,Acc1 Y,Acc1 z,Acc2 X,Acc2 Y,Acc2 z
1768,503,506,0.0,0,0,0,0,0,0,0
3128,502,506,0.0,0,0,0,0,0,0,0
4584,503,506,0.0,0,0,0,0,0,0,0
6024,503,506,0.0,0,0,0,0,0,0,0
7472,503,506,0.0,0,0,0,0,0,0,0
8928,503,506,0.0,0,0,0,0,0,0,0
10384,503,506,0.0,0,0,0,0,0,0,0
11832,503,506,0.0,0,0,0,0,0,0,0
13296,503,506,0.0,0,0,0,0,0,0,0
15512,503,506,0.0,0,0,0,0,0,0,0
18232,503,507,0.0,0,0,0,0,0,0,0
20952,503,506,0.0,0,0,0,0,0,0,0
23672,503,506,0.0,0,0,0,0,0,0,0
26392,503,506,0.0,0,0,0,0,0,0,0
29112,503,506,0.0,0,0,0,0,0,0,0
31832,503,506,0.0,0,0,0,0,0,0,0
34552,503,506,0.0,0,0,0,0,0,0,0
37272,503,507,0.0,0,0,0,0,0,0,0
39992,503,507,0.0,0,0,0,0,0,0,0
42712,503,507,0.0,0,0,0,0,0,0,0
45432,503,507,0.0,0,0,0,0,0,0,0
48152,504,507,0.0,0,0,0,0,0,0,0
51568,504,507,0.0,0,0,0,0,0,0,0
53592,504,507,0.0,0,0,0,0,0,0,0
56312,504,506,0.0,0,0,0,0,0,0,0
59032,504,506,0.0,0,0,0,0,0,0,0
61752,505,507,0.0,0,0,0,0,0,0,0
64472,506,507,0.0,0,0,0,0,0,0,0
67192,508,506,0.0,0,0,0,0,0,0,0
69912,510,507,0.0,0,0,0,0,0,0,0
72632,513,506,0.0,0,0,0,0,0,0,0
75352,515,507,0.0,0,0,0,0,0,0,0
78080,516,506,0.0,0,0,0,0,0,0,0
80792,517,507,0.0,0,0,0,0,0,0,0
83512,518,507,0.0,0,0,0,0,0,0,0
97797.71428571429,518,507,0.0,0,0,0,0,0,0,0
112083.42857142858,520,507,0.0,17976,1,518,507,0,540,-1
126369.14285714287,521,507,0.0,17976,1,518,507,0,540,-1
140654.85714285716,523,507,0.0,17976,1,518,507,0,540,-1
154940.57142857145,525,507,0.0,17976,1,518,507,0,540,-1
169226.28571428574,527,507,0.0,17976,1,518,507,0,540,-1
183512.00000000003,527,506,0.0,17976,1,518,507,0,540,-1
197797.71428571432,527,506,0.0,17976,1,518,507,0,540,-1
212083.4285714286,527,506,0.0,17976,1,518,507,0,540,-1
226369.1428571429,526,506,0.0,17976,1,518,507,0,540,-1
240654.8571428572,525,506,0.0,17976,1,518,507,0,540,-1
254940.57142857148,526,506,0.0,17976,1,518,507,0,540,-1
269226.28571428574,526,506,0.0,17976,1,518,507,0,540,-1
283512.0,527,506,0.0,17976,1,518,507,0,540,-1
297797.71428571426,525,506,0.0,17976,1,518,507,0,540,-1
312083.4285714285,521,506,0.0,17976,1,518,507,0,540,-1
326369.1428571428,516,506,0.0,17976,1,518,507,0,540,-1
340654.85714285704,511,506,0.0,17976,1,518,507,0,540,-1
354940.5714285713,507,506,0.0,17976,1,518,507,0,540,-1
369226.28571428556,503,506,0.0,17976,1,518,507,0,540,-1
383511.9999999998,500,506,0.0,17976,1,518,507,0,540,-1
397797.7142857141,497,506,0.0,17976,1,518,507,0,540,-1
412083.42857142835,496,506,0.0,17976,1,518,507,0,540,-1
426369.1428571426,494,506,0.0,17976,1,518,507,0,540,-1
440654.85714285687,494,506,0.0,17976,1,518,507,0,540,-1
454940.57142857113,493,506,0.0,17976,1,518,507,0,540,-1
469226.2857142854,494,506,0.0,17976,1,518,507,0,540,-1
483511.99999999965,494,506,0.0,17976,1,518,507,0,540,-1
497797.7142857139,494,506,0.0,17976,1,518,507,0,540,-1
512083.4285714282,495,507,0.0,17976,1,518,507,0,540,-1
526369.1428571425,495,507,0.0,17976,1,518,507,0,540,-1
540654.8571428568,495,506,0.0,17976,1,518,507,0,540,-1
554940.5714285711,495,506,0.0,17976,1,518,507,0,540,-1
569226.2857142854,495,506,0.0,17976,1,518,507,0,540,-1
583511.9999999998,495,506,0.0,17976,1,518,507,0,540,-1
597797.7142857141,495,506,0.0,17976,1,518,507,0,540,-1
612083.4285714284,495,506,0.0,17976,1,518,507,0,540,-1
626369.1428571427,496,507,0.0,52736,2,495,506,0,516,-1
640654.857142857,497,507,0.0,52736,2,495,506,0,516,-1
654940.5714285714,497,507,0.0,52736,2,495,506,0,516,-1
669226.2857142857,497,507,0.0,52736,2,495,506,0,516,-1
683512.0,498,507,0.0,52736,2,495,506,0,516,-1
697797.7142857143,498,507,0.0,52736,2,495,506,0,516,-1
712083.4285714286,498,507,0.0,52736,2,495,506,0,516,-1
726369.142857143,499,507,0.0,52736,2,495,506,0,516,-1
740654.8571428573,500,507,0.0,52736,2,495,506,0,516,-1
754940.5714285716,501,507,0.0,52736,2,495,506,0,516,-1
769226.2857142859,501,507,0.0,52736,2,495,506,0,516,-1
783512.0000000002,501,507,0.0,52736,2,495,506,0,516,-1
797797.7142857146,501,507,0.0,52736,2,495,506,0,516,-1
812083.4285714289,500,507,0.0,52736,2,495,506,0,516,-1
826369.1428571432,497,507,0.0,52736,2,495,506,0,516,-1
840654.8571428575,492,506,0.0,52736,2,495,506,0,516,-1
854940.5714285718,484,507,0.0,52736,2,495,506,0,516,-1
869226.2857142861,476,507,0.0,52736,2,495,506,0,516,-1
883512.0000000005,471,507,0.0,52736,2,495,506,0,516,-1
897797.7142857148,471,506,0.0,52736,2,495,506,0,516,-1
912083.4285714291,480,506,0.0,52736,2,495,506,0,516,-1
926369.1428571434,499,506,0.0,52736,2,495,506,0,516,-1
940654.8571428577,527,506,0.0,52736,2,495,506,0,516,-1
954940.5714285721,561,506,0.0,52736,2,495,506,0,516,-1
969226.2857142864,612,506,0.0,52736,2,495,506,0,516,-1
983512.0000000007,646,506,0.0,52736,2,495,506,0,516,-1
997797.714285715,689,505,0.0,52736,2,495,506,0,516,-1
1012083.4285714293,722,506,0.0,52736,2,495,506,0,516,-1
1026369.1428571437,741,506,0.0,52736,2,495,506,0,516,-1
1040654.857142858,740,506,0.0,52736,2,495,506,0,516,-1
1054940.5714285723,717,506,0.0,52736,2,495,506,0,516,-1
1069226.2857142866,677,506,0.0,52736,2,495,506,0,516,-1
1083512.000000001,629,506,0.0,52736,2,495,506,0,516,-1
1097797.7142857153,580,506,0.0,52736,2,495,506,0,516,-1
1112083.4285714296,537,506,0.0,52736,2,495,506,0,516,-1
1126369.142857144,537,506,0.0,52736,2,495,506,0,516,-1
1140654.8571428582,474,506,0.0,21968,4,537,506,0,525,-1
1154940.5714285725,467,506,0.0,21968,4,537,506,0,525,-1
1169226.2857142868,465,506,0.0,21968,4,537,506,0,525,-1
1183512.0000000012,465,507,0.0,21968,4,537,506,0,525,-1
1197797.7142857155,467,507,0.0,21968,4,537,506,0,525,-1
1212083.4285714298,468,506,0.0,21968,4,537,506,0,525,-1
1226369.1428571441,470,506,0.0,21968,4,537,506,0,525,-1
1240654.8571428584,471,506,0.0,21968,4,537,506,0,525,-1
1254940.5714285728,471,506,0.0,21968,4,537,506,0,525,-1
1269226.285714287,472,506,0.0,21968,4,537,506,0,525,-1
1283512.0000000014,473,506,0.0,21968,4,537,506,0,525,-1
1297797.7142857157,473,506,0.0,21968,4,537,506,0,525,-1
1312083.42857143,474,506,0.0,21968,4,537,506,0,525,-1
1326369.1428571444,474,506,0.0,21968,4,537,506,0,525,-1
1340654.8571428587,475,506,0.0,21968,4,537,506,0,525,-1
1354940.571428573,475,506,0.0,21968,4,537,506,0,525,-1
1369226.2857142873,476,507,0.0,21968,4,537,506,0,525,-1
1383512.0000000016,477,507,0.0,21968,4,537,506,0,525,-1
1397797.714285716,478,507,0.0,21968,4,537,506,0,525,-1
1412083.4285714303,479,507,0.0,21968,4,537,506,0,525,-1
1426369.1428571446,481,507,0.0,21968,4,537,506,0,525,-1
1440654.857142859,482,507,0.0,21968,4,537,506,0,525,-1
1454940.5714285732,483,507,0.0,21968,4,537,506,0,525,-1
1469226.2857142875,484,507,0.0,21968,4,537,506,0,525,-1
1483512.0000000019,485,507,0.0,21968,4,537,506,0,525,-1
1497797.7142857162,487,506,0.0,21968,4,537,506,0,525,-1
1512083.4285714305,487,506,0.0,21968,4,537,506,0,525,-1
1526369.1428571448,488,506,0.0,21968,4,537,506,0,525,-1
1540654.8571428591,489,506,0.0,21968,4,537,506,0,525,-1
1554940.5714285735,490,507,0.0,21968,4,537,506,0,525,-1
1569226.2857142878,492,507,0.0,21968,4,537,506,0,525,-1
1583512.000000002,492,507,0.0,21968,4,537,506,0,525,-1
1597797.7142857164,493,507,0.0,21968,4,537,506,0,525,-1
1612083.4285714307,493,506,0.0,21968,4,537,506,0,525,-1
1626369.142857145,494,506,0.0,21968,4,537,506,0,525,-1
1640654.8571428594,494,506,0.0,21968,4,537,506,0,525,-1
1654940.5714285737,497,506,0.0,56728,5,494,506,0,502,-1
1669226.285714288,498,507,0.0,56728,5,494,506,0,502,-1
1683512.0000000023,498,507,0.0,56728,5,494,506,0,502,-1
1697797.7142857166,499,507,0.0,56728,5,494,506,0,502,-1
1712083.428571431,500,507,0.0,56728,5,494,506,0,502,-1
1726369.1428571453,500,507,0.0,56728,5,494,506,0,502,-1
1740654.8571428596,501,507,0.0,56728,5,494,506,0,502,-1
1754940.571428574,502,507,0.0,56728,5,494,506,0,502,-1
1769226.2857142882,503,507,0.0,56728,5,494,506,0,502,-1
1783512.0000000026,504,507,0.0,56728,5,494,506,0,502,-1
1797797.7142857169,505,507,0.0,56728,5,494,506,0,502,-1
1812083.4285714312,505,507,0.0,56728,5,494,506,0,502,-1
1826369.1428571455,506,507,0.0,56728,5,494,506,0,502,-1
1840654.8571428598,507,507,0.0,56728,5,494,506,0,502,-1
1854940.5714285742,508,507,0.0,56728,5,494,506,0,502,-1
1869226.2857142885,509,507,0.0,56728,5,494,506,0,502,-1
1883512.0000000028,510,507,0.0,56728,5,494,506,0,502,-1
1897797.714285717,511,507,0.0,56728,5,494,506,0,502,-1
1912083.4285714314,511,507,0.0,56728,5,494,506,0,502,-1
1926369.1428571458,511,507,0.0,56728,5,494,506,0,502,-1
1940654.85714286,512,507,0.0,56728,5,494,506,0,502,-1
1954940.5714285744,513,507,0.0,56728,5,494,506,0,502,-1
1969226.2857142887,514,507,0.0,56728,5,494,506,0,502,-1
1983512.000000003,514,507,0.0,56728,5,494,506,0,502,-1
1997797.7142857173,515,507,0.0,56728,5,494,506,0,502,-1
2012083.4285714317,515,507,0.0,56728,5,494,506,0,502,-1
2026369.142857146,515,507,0.0,56728,5,494,506,0,502,-1
2040654.8571428603,516,507,0.0,56728,5,494,506,0,502,-1
2054940.5714285746,516,506,0.0,56728,5,494,506,0,502,-1
2069226.285714289,516,506,0.0,56728,5,494,506,0,502,-1
2083512.0000000033,517,507,0.0,56728,5,494,506,0,502,-1
2097797.7142857173,517,507,0.0,56728,5,494,506,0,502,-1
2112083.4285714314,517,507,0.0,56728,5,494,506,0,502,-1
2126369.1428571455,516,507,0.0,56728,5,494,506,0,502,-1
2140654.8571428596,516,507,0.0,56728,5,494,506,0,502,-1
2154940.5714285737,516,507,0.0,56728,5,494,506,0,502,-1
2169226.285714288,516,507,0.0,25960,7,516,507,0,506,-1
2183512.000000002,516,507,0.0,25960,7,516,507,0,506,-1
2197797.714285716,516,507,0.0,25960,7,516,507,0,506,-1
2212083.42857143,515,507,0.0,25960,7,516,507,0,506,-1
2226369.142857144,515,507,0.0,25960,7,516,507,0,506,-1
2240654.857142858,515,507,0.0,25960,7,516,507,0,506,-1
2254940.5714285723,515,507,0.0,25960,7,516,507,0,506,-1
2269226.2857142864,515,507,0.0,25960,7,516,507,0,506,-1
2283512.0000000005,514,507,0.0,25960,7,516,507,0,506,-1
2297797.7142857146,514,507,0.0,25960,7,516,507,0,506,-1
2312083.4285714286,514,507,0.0,25960,7,516,507,0,506,-1
2326369.1428571427,514,507,0.0,25960,7,516,507,0,506,-1
2340654.857142857,513,507,0.0,25960,7,516,507,0,506,-1
2354940.571428571,512,507,0.0,25960,7,516,507,0,506,-1
2369226.285714285,511,506,0.0,25960,7,516,507,0,506,-1
2383511.999999999,509,506,0.0,25960,7,516,507,0,506,-1
2397797.714285713,508,507,0.0,25960,7,516,507,0,506,-1
2412083.4285714272,506,507,0.0,25960,7,516,507,0,506,-1
2426369.1428571413,504,507,0.0,25960,7,516,507,0,506,-1
2440654.8571428554,502,507,0.0,25960,7,516,507,0,506,-1
2454940.5714285695,501,507,0.0,25960,7,516,507,0,506,-1
2469226.2857142836,499,507,0.0,25960,7,516,507,0,506,-1
2483511.9999999977,497,507,0.0,25960,7,516,507,0,506,-1
2497797.7142857118,496,507,0.0,25960,7,516,507,0,506,-1
2512083.428571426,494,507,0.0,25960,7,516,507,0,506,-1
2526369.14285714,494,507,0.0,25960,7,516,507,0,506,-1
2540654.857142854,493,507,0.0,25960,7,516,507,0,506,-1
2554940.571428568,491,507,0.0,25960,7,516,507,0,506,-1
2569226.285714282,490,507,0.0,25960,7,516,507,0,506,-1
2583511.9999999963,490,507,0.0,25960,7,516,507,0,506,-1
2597797.7142857104,489,507,0.0,25960,7,516,507,0,506,-1
2612083.4285714244,488,507,0.0,25960,7,516,507,0,506,-1
2626369.1428571385,488,507,0.0,25960,7,516,507,0,506,-1
2640654.8571428526,488,507,0.0,25960,7,516,507,0,506,-1
2654940.5714285667,487,507,0.0,25960,7,516,507,0,506,-1
2669226.285714281,487,507,0.0,25960,7,516,507,0,506,-1
2683511.999999995,489,506,0.0,60720,8,487,507,0,502,-1
2697797.714285709,489,506,0.0,60720,8,487,507,0,502,-1
2712083.428571423,490,506,0.0,60720,8,487,507,0,502,-1
2726369.142857137,490,507,0.0,60720,8,487,507,0,502,-1
2740654.857142851,491,507,0.0,60720,8,487,507,0,502,-1
2754940.5714285653,492,507,0.0,60720,8,487,507,0,502,-1
2769226.2857142794,493,507,0.0,60720,8,487,507,0,502,-1
2783511.9999999935,493,507,0.0,60720,8,487,507,0,502,-1
2797797.7142857076,494,507,0.0,60720,8,487,507,0,502,-1
2812083.4285714217,494,507,0.0,60720,8,487,507,0,502,-1
2826369.1428571357,495,507,0.0,60720,8,487,507,0,502,-1
2840654.85714285,496,507,0.0,60720,8,487,507,0,502,-1
2854940.571428564,496,506,0.0,60720,8,487,507,0,502,-1
2869226.285714278,496,506,0.0,60720,8,487,507,0,502,-1
2883511.999999992,497,506,0.0,60720,8,487,507,0,502,-1
2897797.714285706,498,507,0.0,60720,8,487,507,0,502,-1
2912083.4285714203,499,507,0.0,60720,8,487,507,0,502,-1
2926369.1428571343,500,507,0.0,60720,8,487,507,0,502,-1
2940654.8571428484,500,507,0.0,60720,8,487,507,0,502,-1
2954940.5714285625,500,507,0.0,60720,8,487,507,0,502,-1
2969226.2857142766,501,507,0.0,60720,8,487,507,0,502,-1
2983511.9999999907,501,507,0.0,60720,8,487,507,0,502,-1
2997797.714285705,501,507,0.0,60720,8,487,507,0,502,-1
3012083.428571419,502,507,0.0,60720,8,487,507,0,502,-1
3026369.142857133,502,507,0.0,60720,8,487,507,0,502,-1
3040654.857142847,503,507,0.0,60720,8,487,507,0,502,-1
3054940.571428561,503,507,0.0,60720,8,487,507,0,502,-1
3069226.285714275,504,507,0.0,60720,8,487,507,0,502,-1
3083511.9999999893,504,507,0.0,60720,8,487,507,0,502,-1
3097797.7142857034,504,507,0.0,60720,8,487,507,0,502,-1
3112083.4285714175,505,507,0.0,60720,8,487,507,0,502,-1
3126369.1428571315,505,507,0.0,60720,8,487,507,0,502,-1
3140654.8571428456,505,506,0.0,60720,8,487,507,0,502,-1
3154940.5714285597,505,506,0.0,60720,8,487,507,0,502,-1
3169226.285714274,505,506,0.0,60720,8,487,507,0,502,-1
3183511.999999988,505,506,0.0,60720,8,487,507,0,502,-1
3197797.714285702,505,506,0.0,29960,10,505,506,0,505,-1
3212083.428571416,504,506,0.0,29960,10,505,506,0,505,-1
3226369.14285713,504,506,0.0,29960,10,505,506,0,505,-1
3240654.8571428442,504,506,0.0,29960,10,505,506,0,505,-1
3254940.5714285583,504,506,0.0,29960,10,505,506,0,505,-1
3269226.2857142724,503,506,0.0,29960,10,505,506,0,505,-1
3283511.9999999865,503,506,0.0,29960,10,505,506,0,505,-1
3297797.7142857006,503,506,0.0,29960,10,505,506,0,505,-1
3312083.4285714147,503,506,0.0,29960,10,505,506,0,505,-1
3326369.1428571288,503,506,0.0,29960,10,505,506,0,505,-1
3340654.857142843,503,506,0.0,29960,10,505,506,0,505,-1
3354940.571428557,503,506,0.0,29960,10,505,506,0,505,-1
3369226.285714271,503,506,0.0,29960,10,505,506,0,505,-1
3383511.999999985,503,506,0.0,29960,10,505,506,0,505,-1
3397797.714285699,503,506,0.0,29960,10,505,506,0,505,-1
3412083.4285714133,503,506,0.0,29960,10,505,506,0,505,-1
3426369.1428571274,503,506,0.0,29960,10,505,506,0,505,-1
3440654.8571428414,503,506,0.0,29960,10,505,506,0,505,-1
3454940.5714285555,502,506,0.0,29960,10,505,506,0,505,-1
3469226.2857142696,502,507,0.0,29960,10,505,506,0,505,-1
3483511.9999999837,502,507,0.0,29960,10,505,506,0,505,-1
3497797.714285698,502,507,0.0,29960,10,505,506,0,505,-1
3512083.428571412,502,507,0.0,29960,10,505,506,0,505,-1
3526369.142857126,502,507,0.0,29960,10,505,506,0,505,-1
3540654.85714284,502,507,0.0,29960,10,505,506,0,505,-1
3554940.571428554,502,506,0.0,29960,10,505,506,0,505,-1
3569226.285714268,502,506,0.0,29960,10,505,506,0,505,-1
3583511.9999999823,502,506,0.0,29960,10,505,506,0,505,-1
3597797.7142856964,502,506,0.0,29960,10,505,506,0,505,-1
3612083.4285714105,502,506,0.0,29960,10,505,506,0,505,-1
3626369.1428571246,502,506,0.0,29960,10,505,506,0,505,-1
3640654.8571428386,502,506,0.0,29960,10,505,506,0,505,-1
3654940.5714285527,502,506,0.0,29960,10,505,506,0,505,-1
3669226.285714267,501,506,0.0,29960,10,505,506,0,505,-1
3683511.999999981,501,506,0.0,29960,10,505,506,0,505,-1
3697797.714285695,501,506,0.0,29960,10,505,506,0,505,-1
3712083.428571409,502,506,0.0,64712,11,501,506,0,504,-1
3726369.142857123,502,506,0.0,64712,11,501,506,0,504,-1
3740654.8571428373,502,506,0.0,64712,11,501,506,0,504,-1
3754940.5714285513,502,506,0.0,64712,11,501,506,0,504,-1
3769226.2857142654,502,506,0.0,64712,11,501,506,0,504,-1
3783511.9999999795,502,506,0.0,64712,11,501,506,0,504,-1
3797797.7142856936,502,506,0.0,64712,11,501,506,0,504,-1
3812083.4285714077,503,506,0.0,64712,11,501,506,0,504,-1
3826369.142857122,503,506,0.0,64712,11,501,506,0,504,-1
3840654.857142836,504,506,0.0,64712,11,501,506,0,504,-1
3854940.57142855,504,506,0.0,64712,11,501,506,0,504,-1
3869226.285714264,504,506,0.0,64712,11,501,506,0,504,-1
3883511.999999978,504,507,0.0,64712,11,501,506,0,504,-1
3897797.714285692,504,507,0.0,64712,11,501,506,0,504,-1
3912083.4285714063,505,507,0.0,64712,11,501,506,0,504,-1
3926369.1428571204,505,507,0.0,64712,11,501,506,0,504,-1
3940654.8571428345,506,507,0.0,64712,11,501,506,0,504,-1
3954940.5714285485,506,506,0.0,64712,11,501,506,0,504,-1
3969226.2857142626,506,506,0.0,64712,11,501,506,0,504,-1
3983511.9999999767,506,506,0.0,64712,11,501,506,0,504,-1
3997797.714285691,506,506,0.0,64712,11,501,506,0,504,-1
4012083.428571405,506,506,0.0,64712,11,501,506,0,504,-1
4026369.142857119,507,506,0.0,64712,11,501,506,0,504,-1
4040654.857142833,508,506,0.0,64712,11,501,506,0,504,-1
4054940.571428547,510,507,0.0,64712,11,501,506,0,504,-1
4069226.2857142612,512,507,0.0,64712,11,501,506,0,504,-1
4083511.9999999753,514,507,0.0,64712,11,501,506,0,504,-1
4097797.7142856894,516,507,0.0,64712,11,501,506,0,504,-1
4112083.4285714035,517,507,0.0,64712,11,501,506,0,504,-1
4126369.1428571176,517,507,0.0,64712,11,501,506,0,504,-1
4140654.8571428317,518,507,0.0,64712,11,501,506,0,504,-1
4154940.5714285458,519,507,0.0,64712,11,501,506,0,504,-1
4169226.28571426,520,507,0.0,64712,11,501,506,0,504,-1
4183511.999999974,521,507,0.0,64712,11,501,506,0,504,-1
4197797.7142856885,521,507,0.0,64712,11,501,506,0,504,-1
4212083.428571403,521,507,0.0,64712,11,501,506,0,504,-1
4226369.142857118,527,506,0.0,33944,13,521,507,0,506,-1
4240654.857142832,527,506,0.0,33944,13,521,507,0,506,-1
4254940.571428547,528,506,0.0,33944,13,521,507,0,506,-1
4269226.285714261,527,506,0.0,33944,13,521,507,0,506,-1
4283511.999999976,527,506,0.0,33944,13,521,507,0,506,-1
4297797.71428569,527,506,0.0,33944,13,521,507,0,506,-1
4312083.428571405,527,506,0.0,33944,13,521,507,0,506,-1
4326369.142857119,528,506,0.0,33944,13,521,507,0,506,-1
4340654.857142834,528,506,0.0,33944,13,521,507,0,506,-1
4354940.571428549,527,506,0.0,33944,13,521,507,0,506,-1
4369226.285714263,523,506,0.0,33944,13,521,507,0,506,-1
4383511.999999978,518,506,0.0,33944,13,521,507,0,506,-1
4397797.714285692,511,506,0.0,33944,13,521,507,0,506,-1
4412083.428571407,508,506,0.0,33944,13,521,507,0,506,-1
4426369.142857121,504,506,0.0,33944,13,521,507,0,506,-1
4440654.857142836,501,506,0.0,33944,13,521,507,0,506,-1
4454940.57142855,499,506,0.0,33944,13,521,507,0,506,-1
4469226.285714265,497,506,0.0,33944,13,521,507,0,506,-1
4483511.9999999795,495,506,0.0,33944,13,521,507,0,506,-1
4497797.714285694,494,506,0.0,33944,13,521,507,0,506,-1
4512083.428571409,494,507,0.0,33944,13,521,507,0,506,-1
4526369.142857123,494,507,0.0,33944,13,521,507,0,506,-1
4540654.857142838,494,507,0.0,33944,13,521,507,0,506,-1
4554940.571428552,494,507,0.0,33944,13,521,507,0,506,-1
4569226.285714267,495,507,0.0,33944,13,521,507,0,506,-1
4583511.999999981,494,507,0.0,33944,13,521,507,0,506,-1
4597797.714285696,494,507,0.0,33944,13,521,507,0,506,-1
4612083.4285714105,494,507,0.0,33944,13,521,507,0,506,-1
4626369.142857125,494,506,0.0,33944,13,521,507,0,506,-1
4640654.85714284,495,506,0.0,33944,13,521,507,0,506,-1
4654940.571428554,495,506,0.0,33944,13,521,507,0,506,-1
4669226.285714269,496,506,0.0,33944,13,521,507,0,506,-1
4683511.999999983,496,506,0.0,33944,13,521,507,0,506,-1
4697797.714285698,496,506,0.0,33944,13,521,507,0,506,-1
4712083.428571412,496,506,0.0,33944,13,521,507,0,506,-1
4726369.142857127,496,506,0.0,33944,13,521,507,0,506,-1
4740654.857142841,497,506,0.0,3168,15,496,506,0,502,-1
4754940.571428556,497,506,0.0,3168,15,496,506,0,502,-1
4769226.285714271,498,506,0.0,3168,15,496,506,0,502,-1
4783511.999999985,499,506,0.0,3168,15,496,506,0,502,-1
4797797.7142857,499,507,0.0,3168,15,496,506,0,502,-1
4812083.428571414,500,507,0.0,3168,15,496,506,0,502,-1
4826369.142857129,501,507,0.0,3168,15,496,506,0,502,-1
4840654.857142843,501,507,0.0,3168,15,496,506,0,502,-1
4854940.571428558,501,507,0.0,3168,15,496,506,0,502,-1
4869226.285714272,501,507,0.0,3168,15,496,506,0,502,-1
4883511.999999987,499,507,0.0,3168,15,496,506,0,502,-1
4897797.7142857015,497,507,0.0,3168,15,496,506,0,502,-1
4912083.428571416,492,507,0.0,3168,15,496,506,0,502,-1
4926369.142857131,483,507,0.0,3168,15,496,506,0,502,-1
4940654.857142845,477,506,0.0,3168,15,496,506,0,502,-1
4954940.57142856,471,507,0.0,3168,15,496,506,0,502,-1
4969226.285714274,470,507,0.0,3168,15,496,506,0,502,-1
4983511.999999989,477,507,0.0,3168,15,496,506,0,502,-1
4997797.714285703,494,507,0.0,3168,15,496,506,0,502,-1
5012083.428571418,521,507,0.0,3168,15,496,506,0,502,-1
5026369.1428571325,554,506,0.0,3168,15,496,506,0,502,-1
5040654.857142847,593,506,0.0,3168,15,496,506,0,502,-1
5054940.571428562,636,506,0.0,3168,15,496,506,0,502,-1
5069226.285714276,680,506,0.0,3168,15,496,506,0,502,-1
5083511.999999991,716,506,0.0,3168,15,496,506,0,502,-1
5097797.714285705,737,506,0.0,3168,15,496,506,0,502,-1
5112083.42857142,739,506,0.0,3168,15,496,506,0,502,-1
5126369.142857134,719,506,0.0,3168,15,496,506,0,502,-1
5140654.857142849,682,506,0.0,3168,15,496,506,0,502,-1
5154940.571428563,636,506,0.0,3168,15,496,506,0,502,-1
5169226.285714278,587,506,0.0,3168,15,496,506,0,502,-1
5183511.999999993,543,507,0.0,3168,15,496,506,0,502,-1
5197797.714285707,502,507,0.0,3168,15,496,506,0,502,-1
5212083.428571422,487,507,0.0,3168,15,496,506,0,502,-1
5226369.142857136,475,507,0.0,3168,15,496,506,0,502,-1
5240654.857142851,475,507,0.0,3168,15,496,506,0,502,-1
5254940.571428565,464,507,0.0,37936,16,475,507,0,505,-1
5269226.28571428,465,506,0.0,37936,16,475,507,0,505,-1
5283511.999999994,466,506,0.0,37936,16,475,507,0,505,-1
5297797.714285709,468,506,0.0,37936,16,475,507,0,505,-1
5312083.4285714235,470,507,0.0,37936,16,475,507,0,505,-1
5326369.142857138,470,507,0.0,37936,16,475,507,0,505,-1
5340654.857142853,470,507,0.0,37936,16,475,507,0,505,-1
5354940.571428567,471,507,0.0,37936,16,475,507,0,505,-1
5369226.285714282,471,507,0.0,37936,16,475,507,0,505,-1
5383511.999999996,472,507,0.0,37936,16,475,507,0,505,-1
5397797.714285711,473,507,0.0,37936,16,475,507,0,505,-1
5412083.428571425,473,507,0.0,37936,16,475,507,0,505,-1
5426369.14285714,475,507,0.0,37936,16,475,507,0,505,-1
5440654.8571428545,476,507,0.0,37936,16,475,507,0,505,-1
5454940.571428569,476,507,0.0,37936,16,475,507,0,505,-1
5469226.285714284,477,507,0.0,37936,16,475,507,0,505,-1
5483511.999999998,478,507,0.0,37936,16,475,507,0,505,-1
5497797.714285713,479,507,0.0,37936,16,475,507,0,505,-1
5512083.428571427,480,507,0.0,37936,16,475,507,0,505,-1
5526369.142857142,481,506,0.0,37936,16,475,507,0,505,-1
5540654.857142856,483,506,0.0,37936,16,475,507,0,505,-1
5554940.571428571,484,506,0.0,37936,16,475,507,0,505,-1
5569226.285714285,486,506,0.0,37936,16,475,507,0,505,-1
5583512.0,487,506,0.0,37936,16,475,507,0,505,-1
5597797.714285715,488,507,0.0,37936,16,475,507,0,505,-1
5612083.428571429,489,507,0.0,37936,16,475,507,0,505,-1
5626369.142857144,490,507,0.0,37936,16,475,507,0,505,-1
5640654.857142858,490,506,0.0,37936,16,475,507,0,505,-1
5654940.571428573,491,506,0.0,37936,16,475,507,0,505,-1
5669226.285714287,492,506,0.0,37936,16,475,507,0,505,-1
5683512.000000002,492,506,0.0,37936,16,475,507,0,505,-1
5697797.714285716,493,506,0.0,37936,16,475,507,0,505,-1
5712083.428571431,495,506,0.0,37936,16,475,507,0,505,-1
5726369.1428571455,496,505,0.0,37936,16,475,507,0,505,-1
5740654.85714286,497,505,0.0,37936,16,475,507,0,505,-1
5754940.571428575,497,505,0.0,37936,16,475,507,0,505,-1
5769226.285714289,500,506,0.0,7172,18,497,505,0,504,-1
5783512.000000004,501,506,0.0,7172,18,497,505,0,504,-1
5797797.714285718,502,506,0.0,7172,18,497,505,0,504,-1
5812083.428571433,503,506,0.0,7172,18,497,505,0,504,-1
5826369.142857147,503,506,0.0,7172,18,497,505,0,504,-1
5840654.857142862,504,506,0.0,7172,18,497,505,0,504,-1
5854940.5714285765,505,506,0.0,7172,18,497,505,0,504,-1
5869226.285714291,506,506,0.0,7172,18,497,505,0,504,-1
5883512.000000006,507,506,0.0,7172,18,497,505,0,504,-1
5897797.71428572,508,506,0.0,7172,18,497,505,0,504,-1
5912083.428571435,508,506,0.0,7172,18,497,505,0,504,-1
5926369.142857149,509,506,0.0,7172,18,497,505,0,504,-1
5940654.857142864,510,506,0.0,7172,18,497,505,0,504,-1
5954940.571428578,511,506,0.0,7172,18,497,505,0,504,-1
5969226.285714293,511,506,0.0,7172,18,497,505,0,504,-1
5983512.000000007,512,506,0.0,7172,18,497,505,0,504,-1
5997797.714285722,512,506,0.0,7172,18,497,505,0,504,-1
6012083.428571437,512,506,0.0,7172,18,497,505,0,504,-1
6026369.142857151,513,506,0.0,7172,18,497,505,0,504,-1
6040654.857142866,513,506,0.0,7172,18,497,505,0,504,-1
6054940.57142858,513,506,0.0,7172,18,497,505,0,504,-1
6069226.285714295,513,506,0.0,7172,18,497,505,0,504,-1
6083512.000000009,514,507,0.0,7172,18,497,505,0,504,-1
6097797.714285724,515,507,0.0,7172,18,497,505,0,504,-1
6112083.428571438,515,507,0.0,7172,18,497,505,0,504,-1
6126369.142857153,515,507,0.0,7172,18,497,505,0,504,-1
6140654.8571428675,515,506,0.0,7172,18,497,505,0,504,-1
6154940.571428582,515,506,0.0,7172,18,497,505,0,504,-1
6169226.285714297,516,506,0.0,7172,18,497,505,0,504,-1
6183512.000000011,516,506,0.0,7172,18,497,505,0,504,-1
6197797.714285726,516,506,0.0,7172,18,497,505,0,504,-1
6212083.42857144,516,507,0.0,7172,18,497,505,0,504,-1
6226369.142857155,516,506,0.0,7172,18,497,505,0,504,-1
6240654.857142869,516,507,0.0,7172,18,497,505,0,504,-1
6254940.571428584,515,507,0.0,7172,18,497,505,0,504,-1
6269226.2857142985,515,507,0.0,7172,18,497,505,0,504,-1
6283512.000000013,514,507,0.0,42616,19,515,507,0,506,-1
6297797.714285728,514,507,0.0,42616,19,515,507,0,506,-1
6312083.428571442,514,507,0.0,42616,19,515,507,0,506,-1
6326369.142857157,514,507,0.0,42616,19,515,507,0,506,-1
6340654.857142871,514,507,0.0,42616,19,515,507,0,506,-1
6354940.571428586,514,507,0.0,42616,19,515,507,0,506,-1
6369226.2857143,514,507,0.0,42616,19,515,507,0,506,-1
6383512.000000015,513,507,0.0,42616,19,515,507,0,506,-1
6397797.714285729,513,507,0.0,42616,19,515,507,0,506,-1
6412083.428571444,513,507,0.0,42616,19,515,507,0,506,-1
6426369.142857159,512,507,0.0,42616,19,515,507,0,506,-1
6440654.857142873,512,507,0.0,42616,19,515,507,0,506,-1
6454940.571428588,511,507,0.0,42616,19,515,507,0,506,-1
6469226.285714302,510,507,0.0,42616,19,515,507,0,506,-1
6483512.000000017,509,507,0.0,42616,19,515,507,0,506,-1
6497797.714285731,507,507,0.0,42616,19,515,507,0,506,-1
6512083.428571446,505,507,0.0,42616,19,515,507,0,506,-1
6526369.14285716,504,507,0.0,42616,19,515,507,0,506,-1
6540654.857142875,502,507,0.0,42616,19,515,507,0,506,-1
6554940.5714285895,501,507,0.0,42616,19,515,507,0,506,-1
6569226.285714304,499,507,0.0,42616,19,515,507,0,506,-1
6583512.000000019,497,507,0.0,42616,19,515,507,0,506,-1
6597797.714285733,496,507,0.0,42616,19,515,507,0,506,-1
6612083.428571448,495,507,0.0,42616,19,515,507,0,506,-1
6626369.142857162,494,507,0.0,42616,19,515,507,0,506,-1
6640654.857142877,493,507,0.0,42616,19,515,507,0,506,-1
6654940.571428591,492,507,0.0,42616,19,515,507,0,506,-1
6669226.285714306,491,507,0.0,42616,19,515,507,0,506,-1
6683512.0000000205,491,506,0.0,42616,19,515,507,0,506,-1
6697797.714285735,490,506,0.0,42616,19,515,507,0,506,-1
6712083.42857145,490,506,0.0,42616,19,515,507,0,506,-1
6726369.142857164,490,506,0.0,42616,19,515,507,0,506,-1
6740654.857142879,491,506,0.0,42616,19,515,507,0,506,-1
6754940.571428593,492,506,0.0,42616,19,515,507,0,506,-1
6769226.285714308,492,507,0.0,42616,19,515,507,0,506,-1
6783512.000000022,492,507,0.0,42616,19,515,507,0,506,-1
6797797.714285737,493,507,0.0,11152,21,492,507,0,504,-1
6812083.428571451,494,507,0.0,11152,21,492,507,0,504,-1
6826369.142857166,495,507,0.0,11152,21,492,507,0,504,-1
6840654.857142881,496,507,0.0,11152,21,492,507,0,504,-1
6854940.571428595,496,506,0.0,11152,21,492,507,0,504,-1
6869226.28571431,497,506,0.0,11152,21,492,507,0,504,-1
6883512.000000024,497,506,0.0,11152,21,492,507,0,504,-1
6897797.714285739,498,506,0.0,11152,21,492,507,0,504,-1
6912083.428571453,499,506,0.0,11152,21,492,507,0,504,-1
6926369.142857168,499,506,0.0,11152,21,492,507,0,504,-1
6940654.857142882,499,506,0.0,11152,21,492,507,0,504,-1
6954940.571428597,499,507,0.0,11152,21,492,507,0,504,-1
6969226.2857143115,500,507,0.0,11152,21,492,507,0,504,-1
6983512.000000026,500,507,0.0,11152,21,492,507,0,504,-1
6997797.714285741,501,507,0.0,11152,21,492,507,0,504,-1
7012083.428571455,501,507,0.0,11152,21,492,507,0,504,-1
7026369.14285717,502,507,0.0,11152,21,492,507,0,504,-1
7040654.857142884,502,507,0.0,11152,21,492,507,0,504,-1
7054940.571428599,502,507,0.0,11152,21,492,507,0,504,-1
7069226.285714313,502,507,0.0,11152,21,492,507,0,504,-1
7083512.000000028,503,507,0.0,11152,21,492,507,0,504,-1
7097797.7142857425,504,507,0.0,11152,21,492,507,0,504,-1
7112083.428571457,504,507,0.0,11152,21,492,507,0,504,-1
7126369.142857172,504,507,0.0,11152,21,492,507,0,504,-1
7140654.857142886,504,507,0.0,11152,21,492,507,0,504,-1
7154940.571428601,504,506,0.0,11152,21,492,507,0,504,-1
7169226.285714315,505,507,0.0,11152,21,492,507,0,504,-1
7183512.00000003,505,507,0.0,11152,21,492,507,0,504,-1
7197797.714285744,505,507,0.0,11152,21,492,507,0,504,-1
7212083.428571459,505,507,0.0,11152,21,492,507,0,504,-1
7226369.142857173,505,507,0.0,11152,21,492,507,0,504,-1
7240654.857142888,505,507,0.0,11152,21,492,507,0,504,-1
7254940.571428603,505,507,0.0,11152,21,492,507,0,504,-1
7269226.285714317,505,506,0.0,11152,21,492,507,0,504,-1
7283512.000000032,504,506,0.0,11152,21,492,507,0,504,-1
7297797.714285746,504,506,0.0,11152,21,492,507,0,504,-1
7312083.428571461,505,506,0.0,45920,22,504,506,0,504,-1
7326369.142857175,505,506,0.0,45920,22,504,506,0,504,-1
7340654.85714289,505,506,0.0,45920,22,504,506,0,504,-1
7354940.571428604,504,506,0.0,45920,22,504,506,0,504,-1
7369226.285714319,504,506,0.0,45920,22,504,506,0,504,-1
7383512.0000000335,504,506,0.0,45920,22,504,506,0,504,-1
7397797.714285748,503,507,0.0,45920,22,504,506,0,504,-1
7412083.428571463,503,507,0.0,45920,22,504,506,0,504,-1
7426369.142857177,503,507,0.0,45920,22,504,506,0,504,-1
7440654.857142892,503,507,0.0,45920,22,504,506,0,504,-1
7454940.571428606,503,507,0.0,45920,22,504,506,0,504,-1
7469226.285714321,503,507,0.0,45920,22,504,506,0,504,-1
7483512.000000035,502,507,0.0,45920,22,504,506,0,504,-1
7497797.71428575,502,507,0.0,45920,22,504,506,0,504,-1
7512083.4285714645,502,507,0.0,45920,22,504,506,0,504,-1
7526369.142857179,502,506,0.0,45920,22,504,506,0,504,-1
7540654.857142894,502,506,0.0,45920,22,504,506,0,504,-1
7554940.571428608,502,506,0.0,45920,22,504,506,0,504,-1
7569226.285714323,501,506,0.0,45920,22,504,506,0,504,-1
7583512.000000037,501,507,0.0,45920,22,504,506,0,504,-1
7597797.714285752,501,507,0.0,45920,22,504,506,0,504,-1
7612083.428571466,501,507,0.0,45920,22,504,506,0,504,-1
7626369.142857181,502,506,0.0,45920,22,504,506,0,504,-1
7640654.857142895,501,506,0.0,45920,22,504,506,0,504,-1
7654940.57142861,501,506,0.0,45920,22,504,506,0,504,-1
7669226.285714325,501,506,0.0,45920,22,504,506,0,504,-1
7683512.000000039,501,506,0.0,45920,22,504,506,0,504,-1
7697797.714285754,501,506,0.0,45920,22,504,506,0,504,-1
7712083.428571468,501,506,0.0,45920,22,504,506,0,504,-1
7726369.142857183,501,506,0.0,45920,22,504,506,0,504,-1
7740654.857142897,501,507,0.0,45920,22,504,506,0,504,-1
7754940.571428612,502,507,0.0,45920,22,504,506,0,504,-1
7769226.285714326,502,507,0.0,45920,22,504,506,0,504,-1
7783512.000000041,502,507,0.0,45920,22,504,506,0,504,-1
7797797.7142857555,502,507,0.0,45920,22,504,506,0,504,-1
7812083.42857147,502,507,0.0,45920,22,504,506,0,504,-1
7826369.142857185,503,506,0.0,15144,24,502,507,0,503,-1
7840654.857142899,504,507,0.0,15144,24,502,507,0,503,-1
7854940.571428614,504,507,0.0,15144,24,502,507,0,503,-1
7869226.285714328,504,506,0.0,15144,24,502,507,0,503,-1
7883512.000000043,504,506,0.0,15144,24,502,507,0,503,-1
7897797.714285757,504,506,0.0,15144,24,502,507,0,503,-1
7912083.428571472,505,506,0.0,15144,24,502,507,0,503,-1
7926369.1428571865,505,506,0.0,15144,24,502,507,0,503,-1
7940654.857142901,504,506,0.0,15144,24,502,507,0,503,-1
7954940.571428616,504,506,0.0,15144,24,502,507,0,503,-1
7969226.28571433,504,506,0.0,15144,24,502,507,0,503,-1
7983512.000000045,504,506,0.0,15144,24,502,507,0,503,-1
7997797.714285759,504,506,0.0,15144,24,502,507,0,503,-1
8012083.428571474,504,506,0.0,15144,24,502,507,0,503,-1
8026369.142857188,504,506,0.0,15144,24,502,507,0,503,-1
8040654.857142903,504,506,0.0,15144,24,502,507,0,503,-1
8054940.571428617,504,506,0.0,15144,24,502,507,0,503,-1
8069226.285714332,505,506,0.0,15144,24,502,507,0,503,-1
8083512.000000047,505,506,0.0,15144,24,502,507,0,503,-1
8097797.714285761,505,506,0.0,15144,24,502,507,0,503,-1
8112083.428571476,505,506,0.0,15144,24,502,507,0,503,-1
8126369.14285719,505,506,0.0,15144,24,502,507,0,503,-1
8140654.857142905,505,506,0.0,15144,24,502,507,0,503,-1
8154940.571428619,505,507,0.0,15144,24,502,507,0,503,-1
8169226.285714334,505,507,0.0,15144,24,502,507,0,503,-1
8183512.000000048,506,507,0.0,15144,24,502,507,0,503,-1
8197797.714285763,506,506,0.0,15144,24,502,507,0,503,-1
8212083.4285714775,506,506,0.0,15144,24,502,507,0,503,-1
8226369.142857192,507,506,0.0,15144,24,502,507,0,503,-1
8240654.857142907,507,506,0.0,15144,24,502,507,0,503,-1
8254940.571428621,507,506,0.0,15144,24,502,507,0,503,-1
8269226.285714336,507,506,0.0,15144,24,502,507,0,503,-1
8283512.00000005,507,506,0.0,15144,24,502,507,0,503,-1
8297797.714285765,507,506,0.0,15144,24,502,507,0,503,-1
8312083.428571479,507,506,0.0,15144,24,502,507,0,503,-1
8326369.142857194,507,506,0.0,15144,24,502,507,0,503,-1
8340654.8571429085,507,506,0.0,49912,25,507,506,0,504,-1
8354940.571428623,507,505,0.0,49912,25,507,506,0,504,-1
8369226.285714338,507,505,0.0,49912,25,507,506,0,504,-1
8383512.000000052,507,505,0.0,49912,25,507,506,0,504,-1
8397797.714285767,507,505,0.0,49912,25,507,506,0,504,-1
8412083.428571481,507,506,0.0,49912,25,507,506,0,504,-1
8426369.142857196,508,506,0.0,49912,25,507,506,0,504,-1
8440654.85714291,508,506,0.0,49912,25,507,506,0,504,-1
8454940.571428625,509,506,0.0,49912,25,507,506,0,504,-1
8469226.28571434,509,506,0.0,49912,25,507,506,0,504,-1
8483512.000000054,511,507,0.0,49912,25,507,506,0,504,-1
8497797.714285769,513,507,0.0,49912,25,507,506,0,504,-1
8512083.428571483,515,507,0.0,49912,25,507,506,0,504,-1
8526369.142857198,516,507,0.0,49912,25,507,506,0,504,-1
8540654.857142912,517,507,0.0,49912,25,507,506,0,504,-1
8554940.571428627,518,507,0.0,49912,25,507,506,0,504,-1
8569226.285714341,520,507,0.0,49912,25,507,506,0,504,-1
8583512.000000056,521,507,0.0,49912,25,507,506,0,504,-1
8597797.71428577,521,507,0.0,49912,25,507,506,0,504,-1
8612083.428571485,521,507,0.0,49912,25,507,506,0,504,-1
8626369.1428572,521,507,0.0,49912,25,507,506,0,504,-1
8640654.857142914,523,507,0.0,49912,25,507,506,0,504,-1
8654940.571428629,525,507,0.0,49912,25,507,506,0,504,-1
8669226.285714343,526,506,0.0,49912,25,507,506,0,504,-1
8683512.000000058,527,506,0.0,49912,25,507,506,0,504,-1
8697797.714285772,527,507,0.0,49912,25,507,506,0,504,-1
8712083.428571487,527,507,0.0,49912,25,507,506,0,504,-1
8726369.142857201,526,507,0.0,49912,25,507,506,0,504,-1
8740654.857142916,525,507,0.0,49912,25,507,506,0,504,-1
8754940.57142863,526,507,0.0,49912,25,507,506,0,504,-1
8769226.285714345,527,507,0.0,49912,25,507,506,0,504,-1
8783512.00000006,527,507,0.0,49912,25,507,506,0,504,-1
8797797.714285774,524,507,0.0,49912,25,507,506,0,504,-1
8812083.428571489,520,507,0.0,49912,25,507,506,0,504,-1
8826369.142857203,515,507,0.0,49912,25,507,506,0,504,-1
8840654.857142918,515,507,0.0,49912,25,507,506,0,504,-1
8854940.571428632,504,507,0.0,19136,27,515,507,0,507,-1
8869226.285714347,500,507,0.0,19136,27,515,507,0,507,-1
8883512.000000061,498,507,0.0,19136,27,515,507,0,507,-1
8897797.714285776,496,507,0.0,19136,27,515,507,0,507,-1
8912083.42857149,495,507,0.0,19136,27,515,507,0,507,-1
8926369.142857205,495,507,0.0,19136,27,515,507,0,507,-1
8940654.85714292,495,507,0.0,19136,27,515,507,0,507,-1
8954940.571428634,495,507,0.0,19136,27,515,507,0,507,-1
8969226.285714349,495,507,0.0,19136,27,515,507,0,507,-1
8983512.000000063,495,507,0.0,19136,27,515,507,0,507,-1
8997797.714285778,495,507,0.0,19136,27,515,507,0,507,-1
9012083.428571492,495,506,0.0,19136,27,515,507,0,507,-1
9026369.142857207,495,506,0.0,19136,27,515,507,0,507,-1
9040654.857142922,495,506,0.0,19136,27,515,507,0,507,-1
9054940.571428636,495,506,0.0,19136,27,515,507,0,507,-1
9069226.28571435,496,507,0.0,19136,27,515,507,0,507,-1
9083512.000000065,496,507,0.0,19136,27,515,507,0,507,-1
9097797.71428578,495,507,0.0,19136,27,515,507,0,507,-1
9112083.428571494,495,507,0.0,19136,27,515,507,0,507,-1
9126369.142857209,495,506,0.0,19136,27,515,507,0,507,-1
9140654.857142923,495,506,0.0,19136,27,515,507,0,507,-1
9154940.571428638,496,506,0.0,19136,27,515,507,0,507,-1
9169226.285714353,496,506,0.0,19136,27,515,507,0,507,-1
9183512.000000067,497,506,0.0,19136,27,515,507,0,507,-1
9197797.714285782,497,506,0.0,19136,27,515,507,0,507,-1
9212083.428571496,498,507,0.0,19136,27,515,507,0,507,-1
9226369.14285721,498,507,0.0,19136,27,515,507,0,507,-1
9240654.857142925,499,507,0.0,19136,27,515,507,0,507,-1
9254940.57142864,499,507,0.0,19136,27,515,507,0,507,-1
9269226.285714354,500,506,0.0,19136,27,515,507,0,507,-1
9283512.000000069,499,506,0.0,19136,27,515,507,0,507,-1
9297797.714285783,499,507,0.0,19136,27,515,507,0,507,-1
9312083.428571498,498,507,0.0,19136,27,515,507,0,507,-1
9326369.142857213,495,507,0.0,19136,27,515,507,0,507,-1
9340654.857142927,490,507,0.0,19136,27,515,507,0,507,-1
9354940.571428642,490,507,0.0,19136,27,515,507,0,507,-1
9369226.285714356,469,506,0.0,53904,28,490,507,0,503,-1
9383512.00000007,470,506,0.0,53904,28,490,507,0,503,-1
9397797.714285785,479,506,0.0,53904,28,490,507,0,503,-1
9412083.4285715,497,507,0.0,53904,28,490,507,0,503,-1
9426369.142857214,525,507,0.0,53904,28,490,507,0,503,-1
9440654.857142929,570,507,0.0,53904,28,490,507,0,503,-1
9454940.571428644,601,506,0.0,53904,28,490,507,0,503,-1
9469226.285714358,645,507,0.0,53904,28,490,507,0,503,-1
9483512.000000073,688,506,0.0,53904,28,490,507,0,503,-1
9497797.714285787,722,507,0.0,53904,28,490,507,0,503,-1
9512083.428571502,739,507,0.0,53904,28,490,507,0,503,-1
9526369.142857216,736,507,0.0,53904,28,490,507,0,503,-1
9540654.85714293,713,507,0.0,53904,28,490,507,0,503,-1
9554940.571428645,673,507,0.0,53904,28,490,507,0,503,-1
9569226.28571436,626,507,0.0,53904,28,490,507,0,503,-1
9583512.000000075,578,507,0.0,53904,28,490,507,0,503,-1
9597797.714285789,537,507,0.0,53904,28,490,507,0,503,-1
9612083.428571504,506,507,0.0,53904,28,490,507,0,503,-1
9626369.142857218,485,507,0.0,53904,28,490,507,0,503,-1
9640654.857142933,473,507,0.0,53904,28,490,507,0,503,-1
9654940.571428647,467,507,0.0,53904,28,490,507,0,503,-1
9669226.285714362,464,506,0.0,53904,28,490,507,0,503,-1
9683512.000000076,464,506,0.0,53904,28,490,507,0,503,-1
9697797.71428579,465,506,0.0,53904,28,490,507,0,503,-1
9712083.428571505,467,506,0.0,53904,28,490,507,0,503,-1
9726369.14285722,468,506,0.0,53904,28,490,507,0,503,-1
9740654.857142935,469,507,0.0,53904,28,490,507,0,503,-1
9754940.57142865,470,507,0.0,53904,28,490,507,0,503,-1
9769226.285714364,471,507,0.0,53904,28,490,507,0,503,-1
9783512.000000078,471,507,0.0,53904,28,490,507,0,503,-1
9797797.714285793,472,507,0.0,53904,28,490,507,0,503,-1
9812083.428571507,473,507,0.0,53904,28,490,507,0,503,-1
9826369.142857222,474,507,0.0,53904,28,490,507,0,503,-1
9840654.857142936,475,507,0.0,53904,28,490,507,0,503,-1
9854940.571428651,475,507,0.0,53904,28,490,507,0,503,-1
9869226.285714366,475,507,0.0,53904,28,490,507,0,503,-1
9883512.00000008,478,507,0.0,23128,30,475,507,0,495,-1
9897797.714285795,479,506,0.0,23128,30,475,507,0,495,-1
9912083.42857151,480,506,0.0,23128,30,475,507,0,495,-1
9926369.142857224,480,506,0.0,23128,30,475,507,0,495,-1
9940654.857142938,481,506,0.0,23128,30,475,507,0,495,-1
9954940.571428653,483,506,0.0,23128,30,475,507,0,495,-1
9969226.285714367,485,506,0.0,23128,30,475,507,0,495,-1
9983512.000000082,486,506,0.0,23128,30,475,507,0,495,-1
9997797.714285797,486,506,0.0,23128,30,475,507,0,495,-1
10012083.428571511,487,506,0.0,23128,30,475,507,0,495,-1
10026369.142857226,488,506,0.0,23128,30,475,507,0,495,-1
10040654.85714294,489,506,0.0,23128,30,475,507,0,495,-1
10054940.571428655,490,506,0.0,23128,30,475,507,0,495,-1
10069226.28571437,491,506,0.0,23128,30,475,507,0,495,-1
10083512.000000084,492,506,0.0,23128,30,475,507,0,495,-1
10097797.714285798,493,505,0.0,23128,30,475,507,0,495,-1
10112083.428571513,494,505,0.0,23128,30,475,507,0,495,-1
10126369.142857227,495,505,0.0,23128,30,475,507,0,495,-1
10140654.857142942,496,505,0.0,23128,30,475,507,0,495,-1
10154940.571428657,496,505,0.0,23128,30,475,507,0,495,-1
10169226.285714371,497,506,0.0,23128,30,475,507,0,495,-1
10183512.000000086,498,506,0.0,23128,30,475,507,0,495,-1
10197797.7142858,499,506,0.0,23128,30,475,507,0,495,-1
10212083.428571515,500,506,0.0,23128,30,475,507,0,495,-1
10226369.14285723,501,506,0.0,23128,30,475,507,0,495,-1
10240654.857142944,502,506,0.0,23128,30,475,507,0,495,-1
10254940.571428658,503,506,0.0,23128,30,475,507,0,495,-1
10269226.285714373,504,506,0.0,23128,30,475,507,0,495,-1
10283512.000000088,505,506,0.0,23128,30,475,507,0,495,-1
10297797.714285802,506,506,0.0,23128,30,475,507,0,495,-1
10312083.428571517,506,506,0.0,23128,30,475,507,0,495,-1
10326369.142857231,507,506,0.0,23128,30,475,507,0,495,-1
10340654.857142946,508,506,0.0,23128,30,475,507,0,495,-1
10354940.57142866,509,506,0.0,23128,30,475,507,0,495,-1
10369226.285714375,509,506,0.0,23128,30,475,507,0,495,-1
10383512.00000009,509,506,0.0,23128,30,475,507,0,495,-1
10397797.714285804,511,506,0.0,57896,31,509,506,0,504,-1
10412083.428571519,512,506,0.0,57896,31,509,506,0,504,-1
10426369.142857233,512,506,0.0,57896,31,509,506,0,504,-1
10440654.857142948,513,506,0.0,57896,31,509,506,0,504,-1
10454940.571428662,514,506,0.0,57896,31,509,506,0,504,-1
10469226.285714377,514,506,0.0,57896,31,509,506,0,504,-1
10483512.000000091,515,506,0.0,57896,31,509,506,0,504,-1
10497797.714285806,515,507,0.0,57896,31,509,506,0,504,-1
10512083.42857152,516,507,0.0,57896,31,509,506,0,504,-1
10526369.142857235,516,507,0.0,57896,31,509,506,0,504,-1
10540654.85714295,516,507,0.0,57896,31,509,506,0,504,-1
10554940.571428664,516,507,0.0,57896,31,509,506,0,504,-1
10569226.285714379,517,507,0.0,57896,31,509,506,0,504,-1
10583512.000000093,517,507,0.0,57896,31,509,506,0,504,-1
10597797.714285808,518,507,0.0,57896,31,509,506,0,504,-1
10612083.428571522,518,506,0.0,57896,31,509,506,0,504,-1
10626369.142857237,518,507,0.0,57896,31,509,506,0,504,-1
10640654.857142951,519,507,0.0,57896,31,509,506,0,504,-1
10654940.571428666,519,507,0.0,57896,31,509,506,0,504,-1
10669226.28571438,518,507,0.0,57896,31,509,506,0,504,-1
10683512.000000095,518,506,0.0,57896,31,509,506,0,504,-1
10697797.71428581,517,507,0.0,57896,31,509,506,0,504,-1
10712083.428571524,517,507,0.0,57896,31,509,506,0,504,-1
10726369.142857239,516,507,0.0,57896,31,509,506,0,504,-1
10740654.857142953,516,507,0.0,57896,31,509,506,0,504,-1
10754940.571428668,516,507,0.0,57896,31,509,506,0,504,-1
10769226.285714382,515,507,0.0,57896,31,509,506,0,504,-1
10783512.000000097,515,507,0.0,57896,31,509,506,0,504,-1
10797797.714285811,515,507,0.0,57896,31,509,506,0,504,-1
10812083.428571526,515,507,0.0,57896,31,509,506,0,504,-1
10826369.14285724,514,507,0.0,57896,31,509,506,0,504,-1
10840654.857142955,514,507,0.0,57896,31,509,506,0,504,-1
10854940.57142867,514,507,0.0,57896,31,509,506,0,504,-1
10869226.285714384,514,507,0.0,57896,31,509,506,0,504,-1
10883512.000000099,513,507,0.0,57896,31,509,506,0,504,-1
10897797.714285813,513,507,0.0,57896,31,509,506,0,504,-1
10912083.428571528,508,507,0.0,27120,33,513,507,0,505,-1
10926369.142857242,506,507,0.0,27120,33,513,507,0,505,-1
10940654.857142957,505,507,0.0,27120,33,513,507,0,505,-1
10954940.571428671,503,507,0.0,27120,33,513,507,0,505,-1
10969226.285714386,501,507,0.0,27120,33,513,507,0,505,-1
10983512.0000001,499,507,0.0,27120,33,513,507,0,505,-1
10997797.714285815,498,507,0.0,27120,33,513,507,0,505,-1
11012083.42857153,497,507,0.0,27120,33,513,507,0,505,-1
11026369.142857244,495,506,0.0,27120,33,513,507,0,505,-1
11040654.857142959,494,506,0.0,27120,33,513,507,0,505,-1
11054940.571428673,493,506,0.0,27120,33,513,507,0,505,-1
11069226.285714388,492,507,0.0,27120,33,513,507,0,505,-1
11083512.000000102,491,507,0.0,27120,33,513,507,0,505,-1
11097797.714285817,490,507,0.0,27120,33,513,507,0,505,-1
11112083.428571532,490,507,0.0,27120,33,513,507,0,505,-1
11126369.142857246,490,507,0.0,27120,33,513,507,0,505,-1
11140654.85714296,490,507,0.0,27120,33,513,507,0,505,-1
11154940.571428675,490,507,0.0,27120,33,513,507,0,505,-1
11169226.28571439,490,507,0.0,27120,33,513,507,0,505,-1
11183512.000000104,490,507,0.0,27120,33,513,507,0,505,-1
11197797.714285819,491,507,0.0,27120,33,513,507,0,505,-1
11212083.428571533,492,506,0.0,27120,33,513,507,0,505,-1
11226369.142857248,492,506,0.0,27120,33,513,507,0,505,-1
11240654.857142963,493,506,0.0,27120,33,513,507,0,505,-1
11254940.571428677,493,506,0.0,27120,33,513,507,0,505,-1
11269226.285714392,494,506,0.0,27120,33,513,507,0,505,-1
11283512.000000106,494,506,0.0,27120,33,513,507,0,505,-1
11297797.71428582,495,506,0.0,27120,33,513,507,0,505,-1
11312083.428571535,496,506,0.0,27120,33,513,507,0,505,-1
11326369.14285725,497,507,0.0,27120,33,513,507,0,505,-1
11340654.857142964,498,506,0.0,27120,33,513,507,0,505,-1
11354940.571428679,499,506,0.0,27120,33,513,507,0,505,-1
11369226.285714393,499,506,0.0,27120,33,513,507,0,505,-1
11383512.000000108,500,506,0.0,27120,33,513,507,0,505,-1
11397797.714285823,500,506,0.0,27120,33,513,507,0,505,-1
11412083.428571537,500,506,0.0,27120,33,513,507,0,505,-1
11426369.142857252,502,507,0.0,61888,34,500,506,0,503,-1
11440654.857142966,502,506,0.0,61888,34,500,506,0,503,-1
11454940.57142868,503,506,0.0,61888,34,500,506,0,503,-1
11469226.285714395,504,506,0.0,61888,34,500,506,0,503,-1
11483512.00000011,503,506,0.0,61888,34,500,506,0,503,-1
11497797.714285824,504,506,0.0,61888,34,500,506,0,503,-1
11512083.428571539,505,506,0.0,61888,34,500,506,0,503,-1
11526369.142857254,505,506,0.0,61888,34,500,506,0,503,-1
11540654.857142968,505,506,0.0,61888,34,500,506,0,503,-1
11554940.571428683,504,506,0.0,61888,34,500,506,0,503,-1
11569226.285714397,505,506,0.0,61888,34,500,506,0,503,-1
11583512.000000112,505,506,0.0,61888,34,500,506,0,503,-1
11597797.714285826,505,507,0.0,61888,34,500,506,0,503,-1
11612083.42857154,505,506,0.0,61888,34,500,506,0,503,-1
11626369.142857255,506,506,0.0,61888,34,500,506,0,503,-1
11640654.85714297,506,506,0.0,61888,34,500,506,0,503,-1
11654940.571428685,506,506,0.0,61888,34,500,506,0,503,-1
11669226.2857144,506,506,0.0,61888,34,500,506,0,503,-1
11683512.000000114,505,506,0.0,61888,34,500,506,0,503,-1
11697797.714285828,505,506,0.0,61888,34,500,506,0,503,-1
11712083.428571543,504,506,0.0,61888,34,500,506,0,503,-1
11726369.142857257,503,506,0.0,61888,34,500,506,0,503,-1
11740654.857142972,503,506,0.0,61888,34,500,506,0,503,-1
11754940.571428686,504,507,0.0,61888,34,500,506,0,503,-1
11769226.285714401,503,507,0.0,61888,34,500,506,0,503,-1
11783512.000000115,503,507,0.0,61888,34,500,506,0,503,-1
11797797.71428583,503,507,0.0,61888,34,500,506,0,503,-1
11812083.428571545,503,507,0.0,61888,34,500,506,0,503,-1
11826369.14285726,502,507,0.0,61888,34,500,506,0,503,-1
11840654.857142974,502,507,0.0,61888,34,500,506,0,503,-1
11854940.571428688,502,507,0.0,61888,34,500,506,0,503,-1
11869226.285714403,502,507,0.0,61888,34,500,506,0,503,-1
11883512.000000117,502,507,0.0,61888,34,500,506,0,503,-1
11897797.714285832,502,507,0.0,61888,34,500,506,0,503,-1
11912083.428571546,502,507,0.0,61888,34,500,506,0,503,-1
11926369.142857261,502,507,0.0,61888,34,500,506,0,503,-1
11940654.857142976,502,507,0.0,31112,36,502,507,0,504,-1
11954940.57142869,501,506,0.0,31112,36,502,507,0,504,-1
11969226.285714405,501,506,0.0,31112,36,502,507,0,504,-1
11983512.00000012,501,506,0.0,31112,36,502,507,0,504,-1
11997797.714285834,501,506,0.0,31112,36,502,507,0,504,-1
12012083.428571548,501,507,0.0,31112,36,502,507,0,504,-1
12026369.142857263,501,507,0.0,31112,36,502,507,0,504,-1
12040654.857142977,501,507,0.0,31112,36,502,507,0,504,-1
12054940.571428692,500,507,0.0,31112,36,502,507,0,504,-1
12069226.285714407,501,506,0.0,31112,36,502,507,0,504,-1
12083512.000000121,501,506,0.0,31112,36,502,507,0,504,-1
12097797.714285836,501,506,0.0,31112,36,502,507,0,504,-1
12112083.42857155,500,506,0.0,31112,36,502,507,0,504,-1
12126369.142857265,501,506,0.0,31112,36,502,507,0,504,-1
12140654.85714298,501,506,0.0,31112,36,502,507,0,504,-1
12154940.571428694,501,506,0.0,31112,36,502,507,0,504,-1
12169226.285714408,501,506,0.0,31112,36,502,507,0,504,-1
12183512.000000123,501,506,0.0,31112,36,502,507,0,504,-1
12197797.714285837,502,506,0.0,31112,36,502,507,0,504,-1
12212083.428571552,502,507,0.0,31112,36,502,507,0,504,-1
12226369.142857267,502,507,0.0,31112,36,502,507,0,504,-1
12240654.857142981,502,506,0.0,31112,36,502,507,0,504,-1
12254940.571428696,502,507,0.0,31112,36,502,507,0,504,-1
12269226.28571441,502,507,0.0,31112,36,502,507,0,504,-1
12283512.000000125,502,506,0.0,31112,36,502,507,0,504,-1
12297797.71428584,503,506,0.0,31112,36,502,507,0,504,-1
12312083.428571554,503,506,0.0,31112,36,502,507,0,504,-1
12326369.142857268,503,506,0.0,31112,36,502,507,0,504,-1
12340654.857142983,503,506,0.0,31112,36,502,507,0,504,-1
12354940.571428698,503,506,0.0,31112,36,502,507,0,504,-1
12369226.285714412,503,506,0.0,31112,36,502,507,0,504,-1
12383512.000000127,502,506,0.0,31112,36,502,507,0,504,-1
12397797.714285841,503,507,0.0,31112,36,502,507,0,504,-1
12412083.428571556,503,507,0.0,31112,36,502,507,0,504,-1
12426369.14285727,504,507,0.0,31112,36,502,507,0,504,-1
12440654.857142985,504,507,0.0,31112,36,502,507,0,504,-1
12454940.5714287,504,507,0.0,344,38,504,507,0,504,-1
12469226.285714414,504,507,0.0,344,38,504,507,0,504,-1
12483512.000000129,505,507,0.0,344,38,504,507,0,504,-1
12497797.714285843,505,507,0.0,344,38,504,507,0,504,-1
12512083.428571558,505,506,0.0,344,38,504,507,0,504,-1
12526369.142857272,505,506,0.0,344,38,504,507,0,504,-1
12540654.857142987,505,506,0.0,344,38,504,507,0,504,-1
12554940.571428701,506,506,0.0,344,38,504,507,0,504,-1
12569226.285714416,506,506,0.0,344,38,504,507,0,504,-1
12583512.00000013,506,506,0.0,344,38,504,507,0,504,-1
12597797.714285845,505,506,0.0,344,38,504,507,0,504,-1
12612083.42857156,504,506,0.0,344,38,504,507,0,504,-1
12626369.142857274,505,506,0.0,344,38,504,507,0,504,-1
12640654.857142989,505,507,0.0,344,38,504,507,0,504,-1
12654940.571428703,506,507,0.0,344,38,504,507,0,504,-1
12669226.285714418,506,507,0.0,344,38,504,507,0,504,-1
12683512.000000132,506,507,0.0,344,38,504,507,0,504,-1
12697797.714285847,506,507,0.0,344,38,504,507,0,504,-1
12712083.428571561,507,507,0.0,344,38,504,507,0,504,-1
12726369.142857276,507,507,0.0,344,38,504,507,0,504,-1
12740654.85714299,507,506,0.0,344,38,504,507,0,504,-1
12754940.571428705,507,506,0.0,344,38,504,507,0,504,-1
12769226.28571442,507,507,0.0,344,38,504,507,0,504,-1
12783512.000000134,508,507,0.0,344,38,504,507,0,504,-1
12797797.714285849,508,507,0.0,344,38,504,507,0,504,-1
12812083.428571563,508,507,0.0,344,38,504,507,0,504,-1
12826369.142857278,507,507,0.0,344,38,504,507,0,504,-1
12840654.857142992,508,507,0.0,344,38,504,507,0,504,-1
12854940.571428707,508,507,0.0,344,38,504,507,0,504,-1
12869226.285714421,508,507,0.0,344,38,504,507,0,504,-1
12883512.000000136,509,507,0.0,344,38,504,507,0,504,-1
12897797.71428585,509,507,0.0,344,38,504,507,0,504,-1
12912083.428571565,509,507,0.0,344,38,504,507,0,504,-1
12926369.14285728,510,507,0.0,344,38,504,507,0,504,-1
12940654.857142994,512,506,0.0,344,38,504,507,0,504,-1
12954940.571428709,512,506,0.0,344,38,504,507,0,504,-1
12969226.285714423,517,507,0.0,35104,39,512,506,0,505,-1
12983512.000000138,518,507,0.0,35104,39,512,506,0,505,-1
12997797.714285852,519,507,0.0,35104,39,512,506,0,505,-1
13012083.428571567,520,507,0.0,35104,39,512,506,0,505,-1
13026369.142857281,521,507,0.0,35104,39,512,506,0,505,-1
13040654.857142996,521,507,0.0,35104,39,512,506,0,505,-1
13054940.57142871,522,506,0.0,35104,39,512,506,0,505,-1
13069226.285714425,522,506,0.0,35104,39,512,506,0,505,-1
13083512.00000014,523,506,0.0,35104,39,512,506,0,505,-1
13097797.714285854,525,506,0.0,35104,39,512,506,0,505,-1
13112083.428571569,527,506,0.0,35104,39,512,506,0,505,-1
13126369.142857283,528,506,0.0,35104,39,512,506,0,505,-1
13140654.857142998,528,506,0.0,35104,39,512,506,0,505,-1
13154940.571428712,528,507,0.0,35104,39,512,506,0,505,-1
13169226.285714427,527,507,0.0,35104,39,512,506,0,505,-1
13183512.000000142,526,507,0.0,35104,39,512,506,0,505,-1
13197797.714285856,526,507,0.0,35104,39,512,506,0,505,-1
13212083.42857157,526,506,0.0,35104,39,512,506,0,505,-1
13226369.142857285,526,506,0.0,35104,39,512,506,0,505,-1
13240654.857143,524,506,0.0,35104,39,512,506,0,505,-1
13254940.571428714,520,506,0.0,35104,39,512,506,0,505,-1
13269226.285714429,515,506,0.0,35104,39,512,506,0,505,-1
13283512.000000143,511,506,0.0,35104,39,512,506,0,505,-1
13297797.714285858,507,506,0.0,35104,39,512,506,0,505,-1
13312083.428571573,504,506,0.0,35104,39,512,506,0,505,-1
13326369.142857287,501,506,0.0,35104,39,512,506,0,505,-1
13340654.857143002,499,506,0.0,35104,39,512,506,0,505,-1
13354940.571428716,497,506,0.0,35104,39,512,506,0,505,-1
13369226.28571443,497,507,0.0,35104,39,512,506,0,505,-1
13383512.000000145,496,507,0.0,35104,39,512,506,0,505,-1
13397797.71428586,496,507,0.0,35104,39,512,506,0,505,-1
13412083.428571574,496,507,0.0,35104,39,512,506,0,505,-1
13426369.142857289,496,507,0.0,35104,39,512,506,0,505,-1
13440654.857143003,496,507,0.0,35104,39,512,506,0,505,-1
13454940.571428718,496,506,0.0,35104,39,512,506,0,505,-1
13469226.285714433,496,506,0.0,35104,39,512,506,0,505,-1
13483512.000000147,496,506,0.0,4344,41,496,506,0,501,-1
13497797.714285862,496,506,0.0,4344,41,496,506,0,501,-1
13512083.428571576,496,507,0.0,4344,41,496,506,0,501,-1
13526369.14285729,497,507,0.0,4344,41,496,506,0,501,-1
13540654.857143005,497,507,0.0,4344,41,496,506,0,501,-1
13554940.57142872,497,507,0.0,4344,41,496,506,0,501,-1
13569226.285714434,497,507,0.0,4344,41,496,506,0,501,-1
13583512.000000149,497,507,0.0,4344,41,496,506,0,501,-1
13597797.714285864,497,507,0.0,4344,41,496,506,0,501,-1
13612083.428571578,498,506,0.0,4344,41,496,506,0,501,-1
13626369.142857293,499,507,0.0,4344,41,496,506,0,501,-1
13640654.857143007,500,507,0.0,4344,41,496,506,0,501,-1
13654940.571428722,500,507,0.0,4344,41,496,506,0,501,-1
13669226.285714436,500,507,0.0,4344,41,496,506,0,501,-1
13683512.00000015,500,507,0.0,4344,41,496,506,0,501,-1
13697797.714285865,501,507,0.0,4344,41,496,506,0,501,-1
13712083.42857158,502,506,0.0,4344,41,496,506,0,501,-1
13726369.142857295,502,507,0.0,4344,41,496,506,0,501,-1
13740654.85714301,501,507,0.0,4344,41,496,506,0,501,-1
13754940.571428724,500,507,0.0,4344,41,496,506,0,501,-1
13769226.285714438,498,507,0.0,4344,41,496,506,0,501,-1
13783512.000000153,494,507,0.0,4344,41,496,506,0,501,-1
13797797.714285867,487,507,0.0,4344,41,496,506,0,501,-1
13812083.428571582,478,507,0.0,4344,41,496,506,0,501,-1
13826369.142857296,471,507,0.0,4344,41,496,506,0,501,-1
13840654.857143011,471,507,0.0,4344,41,496,506,0,501,-1
13854940.571428725,478,507,0.0,4344,41,496,506,0,501,-1
13869226.28571444,495,506,0.0,4344,41,496,506,0,501,-1
13883512.000000155,522,506,0.0,4344,41,496,506,0,501,-1
13897797.71428587,556,507,0.0,4344,41,496,506,0,501,-1
13912083.428571584,596,507,0.0,4344,41,496,506,0,501,-1
13926369.142857298,640,507,0.0,4344,41,496,506,0,501,-1
13940654.857143013,695,506,0.0,4344,41,496,506,0,501,-1
13954940.571428727,721,506,0.0,4344,41,496,506,0,501,-1
13969226.285714442,742,506,0.0,4344,41,496,506,0,501,-1
13983512.000000156,742,506,0.0,4344,41,496,506,0,501,-1
13997797.714285871,690,507,0.0,39096,42,742,506,0,530,-1
14012083.428571586,644,507,0.0,39096,42,742,506,0,530,-1
14026369.1428573,596,507,0.0,39096,42,742,506,0,530,-1
14040654.857143015,552,506,0.0,39096,42,742,506,0,530,-1
14054940.57142873,517,506,0.0,39096,42,742,506,0,530,-1
14069226.285714444,493,506,0.0,39096,42,742,506,0,530,-1
14083512.000000158,478,507,0.0,39096,42,742,506,0,530,-1
14097797.714285873,469,507,0.0,39096,42,742,506,0,530,-1
14112083.428571587,466,507,0.0,39096,42,742,506,0,530,-1
14126369.142857302,465,507,0.0,39096,42,742,506,0,530,-1
14140654.857143017,465,507,0.0,39096,42,742,506,0,530,-1
14154940.571428731,466,507,0.0,39096,42,742,506,0,530,-1
14169226.285714446,468,507,0.0,39096,42,742,506,0,530,-1
14183512.00000016,469,507,0.0,39096,42,742,506,0,530,-1
14197797.714285875,471,507,0.0,39096,42,742,506,0,530,-1
14212083.42857159,471,507,0.0,39096,42,742,506,0,530,-1
14226369.142857304,471,506,0.0,39096,42,742,506,0,530,-1
14240654.857143018,472,506,0.0,39096,42,742,506,0,530,-1
14254940.571428733,472,506,0.0,39096,42,742,506,0,530,-1
14269226.285714447,473,507,0.0,39096,42,742,506,0,530,-1
14283512.000000162,474,506,0.0,39096,42,742,506,0,530,-1
14297797.714285877,475,506,0.0,39096,42,742,506,0,530,-1
14312083.428571591,475,506,0.0,39096,42,742,506,0,530,-1
14326369.142857306,476,506,0.0,39096,42,742,506,0,530,-1
14340654.85714302,478,506,0.0,39096,42,742,506,0,530,-1
14354940.571428735,479,506,0.0,39096,42,742,506,0,530,-1
14369226.28571445,481,506,0.0,39096,42,742,506,0,530,-1
14383512.000000164,482,506,0.0,39096,42,742,506,0,530,-1
14397797.714285878,483,507,0.0,39096,42,742,506,0,530,-1
14412083.428571593,484,506,0.0,39096,42,742,506,0,530,-1
14426369.142857308,485,506,0.0,39096,42,742,506,0,530,-1
14440654.857143022,486,506,0.0,39096,42,742,506,0,530,-1
14454940.571428737,487,506,0.0,39096,42,742,506,0,530,-1
14469226.285714451,488,506,0.0,39096,42,742,506,0,530,-1
14483512.000000166,489,506,0.0,39096,42,742,506,0,530,-1
14497797.71428588,489,506,0.0,39096,42,742,506,0,530,-1
14512083.428571595,492,506,0.0,8328,44,489,506,0,497,-1
14526369.14285731,493,506,0.0,8328,44,489,506,0,497,-1
14540654.857143024,494,506,0.0,8328,44,489,506,0,497,-1
14554940.571428739,495,506,0.0,8328,44,489,506,0,497,-1
14569226.285714453,497,506,0.0,8328,44,489,506,0,497,-1
14583512.000000168,497,506,0.0,8328,44,489,506,0,497,-1
14597797.714285882,498,506,0.0,8328,44,489,506,0,497,-1
14612083.428571597,498,506,0.0,8328,44,489,506,0,497,-1
14626369.142857311,499,506,0.0,8328,44,489,506,0,497,-1
14640654.857143026,500,506,0.0,8328,44,489,506,0,497,-1
14654940.57142874,501,506,0.0,8328,44,489,506,0,497,-1
14669226.285714455,502,506,0.0,8328,44,489,506,0,497,-1
14683512.00000017,503,506,0.0,8328,44,489,506,0,497,-1
14697797.714285884,504,506,0.0,8328,44,489,506,0,497,-1
14712083.428571599,504,507,0.0,8328,44,489,506,0,497,-1
14726369.142857313,506,507,0.0,8328,44,489,506,0,497,-1
14740654.857143028,506,506,0.0,8328,44,489,506,0,497,-1
14754940.571428742,507,507,0.0,8328,44,489,506,0,497,-1
14769226.285714457,508,507,0.0,8328,44,489,506,0,497,-1
14783512.000000171,509,507,0.0,8328,44,489,506,0,497,-1
14797797.714285886,510,507,0.0,8328,44,489,506,0,497,-1
14812083.4285716,510,507,0.0,8328,44,489,506,0,497,-1
14826369.142857315,511,507,0.0,8328,44,489,506,0,497,-1
14840654.85714303,511,507,0.0,8328,44,489,506,0,497,-1
14854940.571428744,512,507,0.0,8328,44,489,506,0,497,-1
14869226.285714459,512,507,0.0,8328,44,489,506,0,497,-1
14883512.000000173,513,507,0.0,8328,44,489,506,0,497,-1
14897797.714285888,514,507,0.0,8328,44,489,506,0,497,-1
14912083.428571602,514,506,0.0,8328,44,489,506,0,497,-1
14926369.142857317,515,506,0.0,8328,44,489,506,0,497,-1
14940654.857143031,516,506,0.0,8328,44,489,506,0,497,-1
14954940.571428746,517,506,0.0,8328,44,489,506,0,497,-1
14969226.28571446,517,506,0.0,8328,44,489,506,0,497,-1
14983512.000000175,518,506,0.0,8328,44,489,506,0,497,-1
14997797.71428589,518,507,0.0,8328,44,489,506,0,497,-1
15012083.428571604,518,507,0.0,8328,44,489,506,0,497,-1
15026369.142857319,519,506,0.0,43784,45,518,507,0,504,-1
15040654.857143033,519,506,0.0,43784,45,518,507,0,504,-1
15054940.571428748,519,506,0.0,43784,45,518,507,0,504,-1
15069226.285714462,519,507,0.0,43784,45,518,507,0,504,-1
15083512.000000177,519,507,0.0,43784,45,518,507,0,504,-1
15097797.714285892,518,507,0.0,43784,45,518,507,0,504,-1
15112083.428571606,518,507,0.0,43784,45,518,507,0,504,-1
15126369.14285732,518,507,0.0,43784,45,518,507,0,504,-1
15140654.857143035,517,507,0.0,43784,45,518,507,0,504,-1
15154940.57142875,517,507,0.0,43784,45,518,507,0,504,-1
15169226.285714464,516,506,0.0,43784,45,518,507,0,504,-1
15183512.000000179,516,506,0.0,43784,45,518,507,0,504,-1
15197797.714285893,515,506,0.0,43784,45,518,507,0,504,-1
15212083.428571608,515,506,0.0,43784,45,518,507,0,504,-1
15226369.142857322,514,506,0.0,43784,45,518,507,0,504,-1
15240654.857143037,514,506,0.0,43784,45,518,507,0,504,-1
15254940.571428752,514,507,0.0,43784,45,518,507,0,504,-1
15269226.285714466,514,507,0.0,43784,45,518,507,0,504,-1
15283512.00000018,514,507,0.0,43784,45,518,507,0,504,-1
15297797.714285895,513,507,0.0,43784,45,518,507,0,504,-1
15312083.42857161,512,507,0.0,43784,45,518,507,0,504,-1
15326369.142857324,510,507,0.0,43784,45,518,507,0,504,-1
15340654.857143039,509,507,0.0,43784,45,518,507,0,504,-1
15354940.571428753,508,507,0.0,43784,45,518,507,0,504,-1
15369226.285714468,506,507,0.0,43784,45,518,507,0,504,-1
15383512.000000183,505,507,0.0,43784,45,518,507,0,504,-1
15397797.714285897,503,507,0.0,43784,45,518,507,0,504,-1
15412083.428571612,501,507,0.0,43784,45,518,507,0,504,-1
15426369.142857326,500,507,0.0,43784,45,518,507,0,504,-1
15440654.85714304,498,507,0.0,43784,45,518,507,0,504,-1
15454940.571428755,497,507,0.0,43784,45,518,507,0,504,-1
15469226.28571447,495,507,0.0,43784,45,518,507,0,504,-1
15483512.000000184,494,507,0.0,43784,45,518,507,0,504,-1
15497797.714285899,493,506,0.0,43784,45,518,507,0,504,-1
15512083.428571614,492,506,0.0,43784,45,518,507,0,504,-1
15526369.142857328,492,506,0.0,43784,45,518,507,0,504,-1
15540654.857143043,489,506,0.0,12320,47,492,506,0,504,-1
15554940.571428757,489,506,0.0,12320,47,492,506,0,504,-1
15569226.285714472,488,506,0.0,12320,47,492,506,0,504,-1
15583512.000000186,488,506,0.0,12320,47,492,506,0,504,-1
15597797.7142859,489,506,0.0,12320,47,492,506,0,504,-1
15612083.428571615,489,506,0.0,12320,47,492,506,0,504,-1
15626369.14285733,490,506,0.0,12320,47,492,506,0,504,-1
15640654.857143044,490,507,0.0,12320,47,492,506,0,504,-1
15654940.571428759,490,506,0.0,12320,47,492,506,0,504,-1
15669226.285714474,490,506,0.0,12320,47,492,506,0,504,-1
15683512.000000188,491,506,0.0,12320,47,492,506,0,504,-1
15697797.714285903,491,506,0.0,12320,47,492,506,0,504,-1
15712083.428571617,492,506,0.0,12320,47,492,506,0,504,-1
15726369.142857332,493,506,0.0,12320,47,492,506,0,504,-1
15740654.857143046,493,506,0.0,12320,47,492,506,0,504,-1
15754940.57142876,493,506,0.0,12320,47,492,506,0,504,-1
15769226.285714475,494,506,0.0,12320,47,492,506,0,504,-1
15783512.00000019,495,506,0.0,12320,47,492,506,0,504,-1
15797797.714285905,495,507,0.0,12320,47,492,506,0,504,-1
15812083.42857162,496,507,0.0,12320,47,492,506,0,504,-1
15826369.142857334,497,506,0.0,12320,47,492,506,0,504,-1
15840654.857143048,497,506,0.0,12320,47,492,506,0,504,-1
15854940.571428763,498,506,0.0,12320,47,492,506,0,504,-1
15869226.285714477,499,506,0.0,12320,47,492,506,0,504,-1
15883512.000000192,500,506,0.0,12320,47,492,506,0,504,-1
15897797.714285906,500,506,0.0,12320,47,492,506,0,504,-1
15912083.428571621,500,506,0.0,12320,47,492,506,0,504,-1
15926369.142857336,501,506,0.0,12320,47,492,506,0,504,-1
15940654.85714305,502,506,0.0,12320,47,492,506,0,504,-1
15954940.571428765,502,506,0.0,12320,47,492,506,0,504,-1
15969226.28571448,502,506,0.0,12320,47,492,506,0,504,-1
15983512.000000194,502,506,0.0,12320,47,492,506,0,504,-1
15997797.714285908,502,506,0.0,12320,47,492,506,0,504,-1
16012083.428571623,503,506,0.0,12320,47,492,506,0,504,-1
16026369.142857337,504,506,0.0,12320,47,492,506,0,504,-1
16040654.857143052,504,506,0.0,12320,47,492,506,0,504,-1
16054940.571428766,504,506,0.0,47080,48,504,506,0,503,-1
16069226.285714481,504,506,0.0,47080,48,504,506,0,503,-1
16083512.000000196,504,506,0.0,47080,48,504,506,0,503,-1
16097797.71428591,504,506,0.0,47080,48,504,506,0,503,-1
16112083.428571625,505,507,0.0,47080,48,504,506,0,503,-1
16126369.14285734,505,507,0.0,47080,48,504,506,0,503,-1
16140654.857143054,504,507,0.0,47080,48,504,506,0,503,-1
16154940.571428768,504,507,0.0,47080,48,504,506,0,503,-1
16169226.285714483,504,506,0.0,47080,48,504,506,0,503,-1
16183512.000000197,504,506,0.0,47080,48,504,506,0,503,-1
16197797.714285912,503,506,0.0,47080,48,504,506,0,503,-1
16212083.428571627,503,506,0.0,47080,48,504,506,0,503,-1
16226369.142857341,502,506,0.0,47080,48,504,506,0,503,-1
16240654.857143056,503,506,0.0,47080,48,504,506,0,503,-1
16254940.57142877,503,506,0.0,47080,48,504,506,0,503,-1
16269226.285714485,502,506,0.0,47080,48,504,506,0,503,-1
16283512.0000002,502,506,0.0,47080,48,504,506,0,503,-1
16297797.714285914,502,506,0.0,47080,48,504,506,0,503,-1
16312083.428571628,502,506,0.0,47080,48,504,506,0,503,-1
16326369.142857343,501,506,0.0,47080,48,504,506,0,503,-1
16340654.857143058,501,506,0.0,47080,48,504,506,0,503,-1
16354940.571428772,501,506,0.0,47080,48,504,506,0,503,-1
16369226.285714487,500,506,0.0,47080,48,504,506,0,503,-1
16383512.000000201,500,506,0.0,47080,48,504,506,0,503,-1
16397797.714285916,500,506,0.0,47080,48,504,506,0,503,-1
16412083.42857163,500,506,0.0,47080,48,504,506,0,503,-1
16426369.142857345,500,506,0.0,47080,48,504,506,0,503,-1
16440654.85714306,501,507,0.0,47080,48,504,506,0,503,-1
16454940.571428774,501,506,0.0,47080,48,504,506,0,503,-1
16469226.285714488,501,507,0.0,47080,48,504,506,0,503,-1
16483512.000000203,501,507,0.0,47080,48,504,506,0,503,-1
16497797.714285918,502,507,0.0,47080,48,504,506,0,503,-1
16512083.428571632,502,507,0.0,47080,48,504,506,0,503,-1
16526369.142857347,502,507,0.0,47080,48,504,506,0,503,-1
16540654.857143061,502,506,0.0,47080,48,504,506,0,503,-1
16554940.571428776,502,506,0.0,47080,48,504,506,0,503,-1
16569226.28571449,502,506,0.0,16312,50,502,506,0,503,-1
16583512.000000205,502,506,0.0,16312,50,502,506,0,503,-1
16597797.71428592,503,506,0.0,16312,50,502,506,0,503,-1
16612083.428571634,503,506,0.0,16312,50,502,506,0,503,-1
16626369.142857349,503,506,0.0,16312,50,502,506,0,503,-1
16640654.857143063,502,506,0.0,16312,50,502,506,0,503,-1
16654940.571428778,502,506,0.0,16312,50,502,506,0,503,-1
16669226.285714492,502,506,0.0,16312,50,502,506,0,503,-1
16683512.000000207,502,506,0.0,16312,50,502,506,0,503,-1
16697797.714285921,502,506,0.0,16312,50,502,506,0,503,-1
16712083.428571636,503,506,0.0,16312,50,502,506,0,503,-1
16726369.14285735,503,507,0.0,16312,50,502,506,0,503,-1
16740654.857143065,503,506,0.0,16312,50,502,506,0,503,-1
16754940.57142878,504,506,0.0,16312,50,502,506,0,503,-1
16769226.285714494,504,506,0.0,16312,50,502,506,0,503,-1
16783512.00000021,504,506,0.0,16312,50,502,506,0,503,-1
16797797.71428592,504,506,0.0,16312,50,502,506,0,503,-1
16812083.428571634,504,506,0.0,16312,50,502,506,0,503,-1
16826369.142857347,504,506,0.0,16312,50,502,506,0,503,-1
16840654.85714306,504,506,0.0,16312,50,502,506,0,503,-1
16854940.571428772,504,506,0.0,16312,50,502,506,0,503,-1
16869226.285714485,504,506,0.0,16312,50,502,506,0,503,-1
16883512.000000197,504,506,0.0,16312,50,502,506,0,503,-1
16897797.71428591,505,506,0.0,16312,50,502,506,0,503,-1
16912083.428571623,505,506,0.0,16312,50,502,506,0,503,-1
16926369.142857336,505,506,0.0,16312,50,502,506,0,503,-1
16940654.85714305,505,506,0.0,16312,50,502,506,0,503,-1
16954940.57142876,506,506,0.0,16312,50,502,506,0,503,-1
16969226.285714474,506,506,0.0,16312,50,502,506,0,503,-1
16983512.000000186,506,506,0.0,16312,50,502,506,0,503,-1
16997797.7142859,506,506,0.0,16312,50,502,506,0,503,-1
17012083.42857161,506,506,0.0,16312,50,502,506,0,503,-1
17026369.142857324,507,506,0.0,16312,50,502,506,0,503,-1
17040654.857143037,506,506,0.0,16312,50,502,506,0,503,-1
17054940.57142875,506,506,0.0,16312,50,502,506,0,503,-1
17069226.285714462,506,506,0.0,16312,50,502,506,0,503,-1
17083512.000000175,506,506,0.0,51072,51,506,506,0,504,-1
17097797.714285888,506,506,0.0,51072,51,506,506,0,504,-1
17112083.4285716,506,506,0.0,51072,51,506,506,0,504,-1
17126369.142857313,507,506,0.0,51072,51,506,506,0,504,-1
17140654.857143026,507,506,0.0,51072,51,506,506,0,504,-1
17154940.57142874,507,506,0.0,51072,51,506,506,0,504,-1
17169226.28571445,506,506,0.0,51072,51,506,506,0,504,-1
17183512.000000164,506,506,0.0,51072,51,506,506,0,504,-1
17197797.714285877,507,506,0.0,51072,51,506,506,0,504,-1
17212083.42857159,507,505,0.0,51072,51,506,506,0,504,-1
17226369.142857302,508,505,0.0,51072,51,506,506,0,504,-1
17240654.857143015,508,506,0.0,51072,51,506,506,0,504,-1
17254940.571428727,508,506,0.0,51072,51,506,506,0,504,-1
17269226.28571444,508,506,0.0,51072,51,506,506,0,504,-1
17283512.000000153,508,506,0.0,51072,51,506,506,0,504,-1
17297797.714285865,509,506,0.0,51072,51,506,506,0,504,-1
17312083.428571578,509,506,0.0,51072,51,506,506,0,504,-1
17326369.14285729,509,506,0.0,51072,51,506,506,0,504,-1
17340654.857143003,509,506,0.0,51072,51,506,506,0,504,-1
17354940.571428716,509,506,0.0,51072,51,506,506,0,504,-1
17369226.28571443,509,506,0.0,51072,51,506,506,0,504,-1
17383512.00000014,509,506,0.0,51072,51,506,506,0,504,-1
17397797.714285854,509,507,0.0,51072,51,506,506,0,504,-1
17412083.428571567,509,507,0.0,51072,51,506,506,0,504,-1
17426369.14285728,509,507,0.0,51072,51,506,506,0,504,-1
17440654.857142992,509,507,0.0,51072,51,506,506,0,504,-1
17454940.571428705,509,507,0.0,51072,51,506,506,0,504,-1
17469226.285714418,510,507,0.0,51072,51,506,506,0,504,-1
17483512.00000013,510,507,0.0,51072,51,506,506,0,504,-1
17497797.714285843,511,507,0.0,51072,51,506,506,0,504,-1
17512083.428571556,512,507,0.0,51072,51,506,506,0,504,-1
17526369.14285727,514,507,0.0,51072,51,506,506,0,504,-1
17540654.85714298,515,507,0.0,51072,51,506,506,0,504,-1
17554940.571428694,517,507,0.0,51072,51,506,506,0,504,-1
17569226.285714407,518,507,0.0,51072,51,506,506,0,504,-1
17583512.00000012,518,507,0.0,51072,51,506,506,0,504,-1
17597797.714285832,521,506,0.0,20304,53,518,507,0,504,-1
17612083.428571545,521,507,0.0,20304,53,518,507,0,504,-1
17626369.142857257,522,507,0.0,20304,53,518,507,0,504,-1
17640654.85714297,522,507,0.0,20304,53,518,507,0,504,-1
17654940.571428683,523,507,0.0,20304,53,518,507,0,504,-1
17669226.285714395,524,506,0.0,20304,53,518,507,0,504,-1
17683512.000000108,525,506,0.0,20304,53,518,507,0,504,-1
17697797.71428582,527,506,0.0,20304,53,518,507,0,504,-1
17712083.428571533,527,507,0.0,20304,53,518,507,0,504,-1
17726369.142857246,528,507,0.0,20304,53,518,507,0,504,-1
17740654.85714296,527,507,0.0,20304,53,518,507,0,504,-1
17754940.57142867,526,507,0.0,20304,53,518,507,0,504,-1
17769226.285714384,526,507,0.0,20304,53,518,507,0,504,-1
17783512.000000097,526,507,0.0,20304,53,518,507,0,504,-1
17797797.71428581,525,507,0.0,20304,53,518,507,0,504,-1
17812083.428571522,523,507,0.0,20304,53,518,507,0,504,-1
17826369.142857235,521,506,0.0,20304,53,518,507,0,504,-1
17840654.857142948,517,506,0.0,20304,53,518,507,0,504,-1
17854940.57142866,512,506,0.0,20304,53,518,507,0,504,-1
17869226.285714373,508,506,0.0,20304,53,518,507,0,504,-1
17883512.000000086,504,507,0.0,20304,53,518,507,0,504,-1
17897797.7142858,501,506,0.0,20304,53,518,507,0,504,-1
17912083.42857151,498,506,0.0,20304,53,518,507,0,504,-1
17926369.142857224,496,506,0.0,20304,53,518,507,0,504,-1
17940654.857142936,496,506,0.0,20304,53,518,507,0,504,-1
17954940.57142865,496,506,0.0,20304,53,518,507,0,504,-1
17969226.28571436,496,506,0.0,20304,53,518,507,0,504,-1
17983512.000000075,496,506,0.0,20304,53,518,507,0,504,-1
17997797.714285787,496,506,0.0,20304,53,518,507,0,504,-1
18012083.4285715,496,506,0.0,20304,53,518,507,0,504,-1
18026369.142857213,496,506,0.0,20304,53,518,507,0,504,-1
18040654.857142925,496,506,0.0,20304,53,518,507,0,504,-1
18054940.571428638,496,506,0.0,20304,53,518,507,0,504,-1
18069226.28571435,496,506,0.0,20304,53,518,507,0,504,-1
18083512.000000063,497,506,0.0,20304,53,518,507,0,504,-1
18097797.714285776,497,506,0.0,20304,53,518,507,0,504,-1
18112083.42857149,497,506,0.0,55064,54,497,506,0,501,-1
18126369.1428572,497,506,0.0,55064,54,497,506,0,501,-1
18140654.857142914,497,506,0.0,55064,54,497,506,0,501,-1
18154940.571428627,497,507,0.0,55064,54,497,506,0,501,-1
18169226.28571434,498,507,0.0,55064,54,497,506,0,501,-1
18183512.000000052,498,507,0.0,55064,54,497,506,0,501,-1
18197797.714285765,498,507,0.0,55064,54,497,506,0,501,-1
18212083.428571478,499,506,0.0,55064,54,497,506,0,501,-1
18226369.14285719,499,506,0.0,55064,54,497,506,0,501,-1
18240654.857142903,500,506,0.0,55064,54,497,506,0,501,-1
18254940.571428616,500,506,0.0,55064,54,497,506,0,501,-1
18269226.28571433,501,506,0.0,55064,54,497,506,0,501,-1
18283512.00000004,501,506,0.0,55064,54,497,506,0,501,-1
18297797.714285754,500,506,0.0,55064,54,497,506,0,501,-1
18312083.428571466,500,506,0.0,55064,54,497,506,0,501,-1
18326369.14285718,499,506,0.0,55064,54,497,506,0,501,-1
18340654.85714289,498,506,0.0,55064,54,497,506,0,501,-1
18354940.571428604,494,506,0.0,55064,54,497,506,0,501,-1
18369226.285714317,486,506,0.0,55064,54,497,506,0,501,-1
18383512.00000003,477,506,0.0,55064,54,497,506,0,501,-1
18397797.714285742,471,507,0.0,55064,54,497,506,0,501,-1
18412083.428571455,471,507,0.0,55064,54,497,506,0,501,-1
18426369.142857168,477,507,0.0,55064,54,497,506,0,501,-1
18440654.85714288,494,507,0.0,55064,54,497,506,0,501,-1
18454940.571428593,529,508,0.0,55064,54,497,506,0,501,-1
18469226.285714306,556,508,0.0,55064,54,497,506,0,501,-1
18483512.00000002,596,507,0.0,55064,54,497,506,0,501,-1
18497797.71428573,640,507,0.0,55064,54,497,506,0,501,-1
18512083.428571444,685,507,0.0,55064,54,497,506,0,501,-1
18526369.142857157,722,507,0.0,55064,54,497,506,0,501,-1
18540654.85714287,743,507,0.0,55064,54,497,506,0,501,-1
18554940.571428582,745,507,0.0,55064,54,497,506,0,501,-1
18569226.285714295,726,507,0.0,55064,54,497,506,0,501,-1
18583512.000000007,688,506,0.0,55064,54,497,506,0,501,-1
18597797.71428572,641,506,0.0,55064,54,497,506,0,501,-1
18612083.428571433,641,506,0.0,55064,54,497,506,0,501,-1
18626369.142857146,518,507,0.0,24296,56,641,506,0,508,-1
18640654.85714286,493,506,0.0,24296,56,641,506,0,508,-1
18654940.57142857,479,506,0.0,24296,56,641,506,0,508,-1
18669226.285714284,470,506,0.0,24296,56,641,506,0,508,-1
18683511.999999996,466,507,0.0,24296,56,641,506,0,508,-1
18697797.71428571,465,507,0.0,24296,56,641,506,0,508,-1
18712083.42857142,466,507,0.0,24296,56,641,506,0,508,-1
18726369.142857134,467,507,0.0,24296,56,641,506,0,508,-1
18740654.857142847,468,507,0.0,24296,56,641,506,0,508,-1
18754940.57142856,469,506,0.0,24296,56,641,506,0,508,-1
18769226.285714272,470,507,0.0,24296,56,641,506,0,508,-1
18783511.999999985,471,507,0.0,24296,56,641,506,0,508,-1
18797797.714285698,471,507,0.0,24296,56,641,506,0,508,-1
18812083.42857141,472,507,0.0,24296,56,641,506,0,508,-1
18826369.142857123,473,507,0.0,24296,56,641,506,0,508,-1
18840654.857142836,473,507,0.0,24296,56,641,506,0,508,-1
18854940.57142855,474,507,0.0,24296,56,641,506,0,508,-1
18869226.28571426,475,507,0.0,24296,56,641,506,0,508,-1
18883511.999999974,476,507,0.0,24296,56,641,506,0,508,-1
18897797.714285687,477,507,0.0,24296,56,641,506,0,508,-1
18912083.4285714,478,507,0.0,24296,56,641,506,0,508,-1
18926369.142857112,479,507,0.0,24296,56,641,506,0,508,-1
18940654.857142825,480,507,0.0,24296,56,641,506,0,508,-1
18954940.571428537,481,507,0.0,24296,56,641,506,0,508,-1
18969226.28571425,482,507,0.0,24296,56,641,506,0,508,-1
18983511.999999963,483,507,0.0,24296,56,641,506,0,508,-1
18997797.714285675,484,507,0.0,24296,56,641,506,0,508,-1
19012083.428571388,484,507,0.0,24296,56,641,506,0,508,-1
19026369.1428571,485,507,0.0,24296,56,641,506,0,508,-1
19040654.857142814,486,507,0.0,24296,56,641,506,0,508,-1
19054940.571428526,488,507,0.0,24296,56,641,506,0,508,-1
19069226.28571424,489,507,0.0,24296,56,641,506,0,508,-1
19083511.99999995,490,507,0.0,24296,56,641,506,0,508,-1
19097797.714285664,491,507,0.0,24296,56,641,506,0,508,-1
19112083.428571377,492,507,0.0,24296,56,641,506,0,508,-1
19126369.14285709,492,507,0.0,24296,56,641,506,0,508,-1
19140654.857142802,495,506,0.0,59056,57,492,507,0,502,-1
19154940.571428515,496,506,0.0,59056,57,492,507,0,502,-1
19169226.285714228,496,506,0.0,59056,57,492,507,0,502,-1
19183511.99999994,497,506,0.0,59056,57,492,507,0,502,-1
19197797.714285653,498,506,0.0,59056,57,492,507,0,502,-1
19212083.428571366,500,507,0.0,59056,57,492,507,0,502,-1
19226369.14285708,501,507,0.0,59056,57,492,507,0,502,-1
19240654.85714279,503,507,0.0,59056,57,492,507,0,502,-1
19254940.571428504,503,507,0.0,59056,57,492,507,0,502,-1
19269226.285714217,503,507,0.0,59056,57,492,507,0,502,-1
19283511.99999993,503,507,0.0,59056,57,492,507,0,502,-1
19297797.714285642,504,507,0.0,59056,57,492,507,0,502,-1
19312083.428571355,504,507,0.0,59056,57,492,507,0,502,-1
19326369.142857067,505,507,0.0,59056,57,492,507,0,502,-1
19340654.85714278,506,507,0.0,59056,57,492,507,0,502,-1
19354940.571428493,507,507,0.0,59056,57,492,507,0,502,-1
19369226.285714205,508,507,0.0,59056,57,492,507,0,502,-1
19383511.999999918,509,507,0.0,59056,57,492,507,0,502,-1
19397797.71428563,510,507,0.0,59056,57,492,507,0,502,-1
19412083.428571343,511,507,0.0,59056,57,492,507,0,502,-1
19426369.142857056,512,507,0.0,59056,57,492,507,0,502,-1
19440654.85714277,513,507,0.0,59056,57,492,507,0,502,-1
19454940.57142848,513,507,0.0,59056,57,492,507,0,502,-1
19469226.285714194,514,507,0.0,59056,57,492,507,0,502,-1
19483511.999999907,514,507,0.0,59056,57,492,507,0,502,-1
19497797.71428562,515,507,0.0,59056,57,492,507,0,502,-1
19512083.428571332,516,507,0.0,59056,57,492,507,0,502,-1
19526369.142857045,516,507,0.0,59056,57,492,507,0,502,-1
19540654.857142758,517,507,0.0,59056,57,492,507,0,502,-1
19554940.57142847,518,507,0.0,59056,57,492,507,0,502,-1
19569226.285714183,518,506,0.0,59056,57,492,507,0,502,-1
19583511.999999896,519,506,0.0,59056,57,492,507,0,502,-1
19597797.71428561,520,506,0.0,59056,57,492,507,0,502,-1
19612083.42857132,520,506,0.0,59056,57,492,507,0,502,-1
19626369.142857034,520,506,0.0,59056,57,492,507,0,502,-1
19640654.857142746,520,506,0.0,59056,57,492,507,0,502,-1
19654940.57142846,519,506,0.0,28288,59,520,506,0,506,-1
19669226.28571417,519,506,0.0,28288,59,520,506,0,506,-1
19683511.999999885,519,506,0.0,28288,59,520,506,0,506,-1
19697797.714285597,519,506,0.0,28288,59,520,506,0,506,-1
19712083.42857131,518,506,0.0,28288,59,520,506,0,506,-1
19726369.142857023,517,506,0.0,28288,59,520,506,0,506,-1
19740654.857142735,517,506,0.0,28288,59,520,506,0,506,-1
19754940.571428448,516,506,0.0,28288,59,520,506,0,506,-1
19769226.28571416,516,506,0.0,28288,59,520,506,0,506,-1
19783511.999999873,516,506,0.0,28288,59,520,506,0,506,-1
19797797.714285586,516,506,0.0,28288,59,520,506,0,506,-1
19812083.4285713,516,506,0.0,28288,59,520,506,0,506,-1
19826369.14285701,516,506,0.0,28288,59,520,506,0,506,-1
19840654.857142724,515,506,0.0,28288,59,520,506,0,506,-1
19854940.571428437,514,506,0.0,28288,59,520,506,0,506,-1
19869226.28571415,513,506,0.0,28288,59,520,506,0,506,-1
19883511.999999862,512,506,0.0,28288,59,520,506,0,506,-1
19897797.714285575,511,506,0.0,28288,59,520,506,0,506,-1
19912083.428571288,510,506,0.0,28288,59,520,506,0,506,-1
19926369.142857,509,506,0.0,28288,59,520,506,0,506,-1
19940654.857142713,507,507,0.0,28288,59,520,506,0,506,-1
19954940.571428426,505,507,0.0,28288,59,520,506,0,506,-1
19969226.28571414,503,506,0.0,28288,59,520,506,0,506,-1
19983511.99999985,502,506,0.0,28288,59,520,506,0,506,-1
19997797.714285564,500,507,0.0,28288,59,520,506,0,506,-1
20012083.428571276,498,507,0.0,28288,59,520,506,0,506,-1
20026369.14285699,496,507,0.0,28288,59,520,506,0,506,-1
20040654.8571427,495,506,0.0,28288,59,520,506,0,506,-1
20054940.571428414,494,506,0.0,28288,59,520,506,0,506,-1
20069226.285714127,492,506,0.0,28288,59,520,506,0,506,-1
20083511.99999984,491,506,0.0,28288,59,520,506,0,506,-1
20097797.714285553,491,506,0.0,28288,59,520,506,0,506,-1
20112083.428571265,490,507,0.0,28288,59,520,506,0,506,-1
20126369.142856978,489,507,0.0,28288,59,520,506,0,506,-1
20140654.85714269,489,506,0.0,28288,59,520,506,0,506,-1
20154940.571428403,489,506,0.0,28288,59,520,506,0,506,-1
20169226.285714116,488,506,0.0,63048,60,489,506,0,502,-1
20183511.99999983,488,506,0.0,63048,60,489,506,0,502,-1
20197797.71428554,488,507,0.0,63048,60,489,506,0,502,-1
20212083.428571254,489,507,0.0,63048,60,489,506,0,502,-1
20226369.142856967,489,507,0.0,63048,60,489,506,0,502,-1
20240654.85714268,490,507,0.0,63048,60,489,506,0,502,-1
20254940.571428392,491,507,0.0,63048,60,489,506,0,502,-1
20269226.285714105,491,506,0.0,63048,60,489,506,0,502,-1
20283511.999999817,492,506,0.0,63048,60,489,506,0,502,-1
20297797.71428553,493,506,0.0,63048,60,489,506,0,502,-1
20312083.428571243,493,507,0.0,63048,60,489,506,0,502,-1
20326369.142856956,494,507,0.0,63048,60,489,506,0,502,-1
20340654.85714267,494,506,0.0,63048,60,489,506,0,502,-1
20354940.57142838,495,506,0.0,63048,60,489,506,0,502,-1
20369226.285714094,496,506,0.0,63048,60,489,506,0,502,-1
20383511.999999806,496,506,0.0,63048,60,489,506,0,502,-1
20397797.71428552,497,506,0.0,63048,60,489,506,0,502,-1
20412083.42857123,498,506,0.0,63048,60,489,506,0,502,-1
20426369.142856944,498,506,0.0,63048,60,489,506,0,502,-1
20440654.857142657,499,506,0.0,63048,60,489,506,0,502,-1
20454940.57142837,499,506,0.0,63048,60,489,506,0,502,-1
20469226.285714082,500,506,0.0,63048,60,489,506,0,502,-1
20483511.999999795,501,506,0.0,63048,60,489,506,0,502,-1
20497797.714285508,501,506,0.0,63048,60,489,506,0,502,-1
20512083.42857122,501,506,0.0,63048,60,489,506,0,502,-1
20526369.142856933,502,506,0.0,63048,60,489,506,0,502,-1
20540654.857142646,502,506,0.0,63048,60,489,506,0,502,-1
20554940.57142836,503,506,0.0,63048,60,489,506,0,502,-1
20569226.28571407,504,507,0.0,63048,60,489,506,0,502,-1
20583511.999999784,504,507,0.0,63048,60,489,506,0,502,-1
20597797.714285497,504,506,0.0,63048,60,489,506,0,502,-1
20612083.42857121,504,507,0.0,63048,60,489,506,0,502,-1
20626369.142856922,504,507,0.0,63048,60,489,506,0,502,-1
20640654.857142635,504,507,0.0,63048,60,489,506,0,502,-1
20654940.571428347,504,507,0.0,63048,60,489,506,0,502,-1
20669226.28571406,504,507,0.0,63048,60,489,506,0,502,-1
20683511.999999773,503,507,0.0,24,62,504,507,0,504,-1
20697797.714285485,504,507,0.0,24,62,504,507,0,504,-1
20712083.428571198,504,506,0.0,24,62,504,507,0,504,-1
20726369.14285691,504,506,0.0,24,62,504,507,0,504,-1
20740654.857142624,504,506,0.0,24,62,504,507,0,504,-1
20754940.571428336,505,506,0.0,24,62,504,507,0,504,-1
20769226.28571405,504,506,0.0,24,62,504,507,0,504,-1
20783511.99999976,503,507,0.0,24,62,504,507,0,504,-1
20797797.714285474,503,506,0.0,24,62,504,507,0,504,-1
20812083.428571187,503,506,0.0,24,62,504,507,0,504,-1
20826369.1428569,503,506,0.0,24,62,504,507,0,504,-1
20840654.857142612,503,506,0.0,24,62,504,507,0,504,-1
20854940.571428325,503,506,0.0,24,62,504,507,0,504,-1
20869226.285714038,503,506,0.0,24,62,504,507,0,504,-1
20883511.99999975,503,506,0.0,24,62,504,507,0,504,-1
20897797.714285463,503,506,0.0,24,62,504,507,0,504,-1
20912083.428571176,503,506,0.0,24,62,504,507,0,504,-1
20926369.14285689,503,506,0.0,24,62,504,507,0,504,-1
20940654.8571426,502,506,0.0,24,62,504,507,0,504,-1
20954940.571428314,502,506,0.0,24,62,504,507,0,504,-1
20969226.285714027,502,506,0.0,24,62,504,507,0,504,-1
20983511.99999974,502,506,0.0,24,62,504,507,0,504,-1
20997797.714285452,502,506,0.0,24,62,504,507,0,504,-1
21012083.428571165,502,507,0.0,24,62,504,507,0,504,-1
21026369.142856877,502,507,0.0,24,62,504,507,0,504,-1
21040654.85714259,502,506,0.0,24,62,504,507,0,504,-1
21054940.571428303,502,506,0.0,24,62,504,507,0,504,-1
21069226.285714015,502,506,0.0,24,62,504,507,0,504,-1
21083511.999999728,502,506,0.0,24,62,504,507,0,504,-1
21097797.71428544,502,507,0.0,24,62,504,507,0,504,-1
21112083.428571153,503,507,0.0,24,62,504,507,0,504,-1
21126369.142856866,503,507,0.0,24,62,504,507,0,504,-1
21140654.85714258,503,507,0.0,24,62,504,507,0,504,-1
21154940.57142829,503,507,0.0,24,62,504,507,0,504,-1
21169226.285714004,502,507,0.0,24,62,504,507,0,504,-1
21183511.999999717,502,507,0.0,24,62,504,507,0,504,-1
21197797.71428543,502,507,0.0,1504,64,502,507,0,504,-1
21212083.428571142,502,507,0.0,1504,64,502,507,0,504,-1
21226369.142856855,503,507,0.0,1504,64,502,507,0,504,-1
21240654.857142568,503,507,0.0,1504,64,502,507,0,504,-1
21254940.57142828,503,506,0.0,1504,64,502,507,0,504,-1
21269226.285713993,503,506,0.0,1504,64,502,507,0,504,-1
21283511.999999706,503,506,0.0,1504,64,502,507,0,504,-1
21297797.71428542,503,506,0.0,1504,64,502,507,0,504,-1
21312083.42857113,503,506,0.0,1504,64,502,507,0,504,-1
21326369.142856844,504,506,0.0,1504,64,502,507,0,504,-1
21340654.857142556,504,507,0.0,1504,64,502,507,0,504,-1
21354940.57142827,504,507,0.0,1504,64,502,507,0,504,-1
21369226.28571398,504,507,0.0,1504,64,502,507,0,504,-1
21383511.999999695,504,507,0.0,1504,64,502,507,0,504,-1
21397797.714285407,504,507,0.0,1504,64,502,507,0,504,-1
21412083.42857112,504,507,0.0,1504,64,502,507,0,504,-1
21426369.142856833,504,507,0.0,1504,64,502,507,0,504,-1
21440654.857142545,504,507,0.0,1504,64,502,507,0,504,-1
21454940.571428258,504,507,0.0,1504,64,502,507,0,504,-1
21469226.28571397,503,506,0.0,1504,64,502,507,0,504,-1
21483511.999999683,503,506,0.0,1504,64,502,507,0,504,-1
21497797.714285396,504,506,0.0,1504,64,502,507,0,504,-1
21512083.42857111,505,506,0.0,1504,64,502,507,0,504,-1
21526369.14285682,505,507,0.0,1504,64,502,507,0,504,-1
21540654.857142534,505,506,0.0,1504,64,502,507,0,504,-1
21554940.571428247,506,506,0.0,1504,64,502,507,0,504,-1
21569226.28571396,506,506,0.0,1504,64,502,507,0,504,-1
21583511.999999672,507,506,0.0,1504,64,502,507,0,504,-1
21597797.714285385,507,506,0.0,1504,64,502,507,0,504,-1
21612083.428571098,507,506,0.0,1504,64,502,507,0,504,-1
21626369.14285681,507,506,0.0,1504,64,502,507,0,504,-1
21640654.857142523,507,506,0.0,1504,64,502,507,0,504,-1
21654940.571428236,507,506,0.0,1504,64,502,507,0,504,-1
21669226.28571395,506,506,0.0,1504,64,502,507,0,504,-1
21683511.99999966,507,506,0.0,1504,64,502,507,0,504,-1
21697797.714285374,507,506,0.0,1504,64,502,507,0,504,-1
21712083.428571086,507,506,0.0,36272,65,507,506,0,504,-1
21726369.1428568,507,506,0.0,36272,65,507,506,0,504,-1
21740654.85714251,507,506,0.0,36272,65,507,506,0,504,-1
21754940.571428224,507,506,0.0,36272,65,507,506,0,504,-1
21769226.285713937,508,506,0.0,36272,65,507,506,0,504,-1
21783511.99999965,508,506,0.0,36272,65,507,506,0,504,-1
21797797.714285363,508,506,0.0,36272,65,507,506,0,504,-1
21812083.428571075,509,506,0.0,36272,65,507,506,0,504,-1
21826369.142856788,509,506,0.0,36272,65,507,506,0,504,-1
21840654.8571425,508,507,0.0,36272,65,507,506,0,504,-1
21854940.571428213,507,507,0.0,36272,65,507,506,0,504,-1
21869226.285713926,507,506,0.0,36272,65,507,506,0,504,-1
21883511.99999964,507,506,0.0,36272,65,507,506,0,504,-1
21897797.71428535,508,506,0.0,36272,65,507,506,0,504,-1
21912083.428571064,508,506,0.0,36272,65,507,506,0,504,-1
21926369.142856777,508,506,0.0,36272,65,507,506,0,504,-1
21940654.85714249,508,506,0.0,36272,65,507,506,0,504,-1
21954940.571428202,508,506,0.0,36272,65,507,506,0,504,-1
21969226.285713915,509,506,0.0,36272,65,507,506,0,504,-1
21983511.999999627,509,506,0.0,36272,65,507,506,0,504,-1
21997797.71428534,509,506,0.0,36272,65,507,506,0,504,-1
22012083.428571053,509,507,0.0,36272,65,507,506,0,504,-1
22026369.142856766,509,507,0.0,36272,65,507,506,0,504,-1
22040654.85714248,510,507,0.0,36272,65,507,506,0,504,-1
22054940.57142819,510,507,0.0,36272,65,507,506,0,504,-1
22069226.285713904,511,507,0.0,36272,65,507,506,0,504,-1
22083511.999999616,512,506,0.0,36272,65,507,506,0,504,-1
22097797.71428533,514,506,0.0,36272,65,507,506,0,504,-1
22112083.42857104,516,506,0.0,36272,65,507,506,0,504,-1
22126369.142856754,517,506,0.0,36272,65,507,506,0,504,-1
22140654.857142467,518,506,0.0,36272,65,507,506,0,504,-1
22154940.57142818,520,506,0.0,36272,65,507,506,0,504,-1
22169226.285713892,521,506,0.0,36272,65,507,506,0,504,-1
22183511.999999605,521,507,0.0,36272,65,507,506,0,504,-1
22197797.714285318,520,507,0.0,36272,65,507,506,0,504,-1
22212083.42857103,520,507,0.0,36272,65,507,506,0,504,-1
22226369.142856743,525,506,0.0,5496,67,520,507,0,506,-1
22240654.857142456,526,506,0.0,5496,67,520,507,0,506,-1
22254940.57142817,526,506,0.0,5496,67,520,507,0,506,-1
22269226.28571388,527,506,0.0,5496,67,520,507,0,506,-1
22283511.999999594,527,506,0.0,5496,67,520,507,0,506,-1
22297797.714285307,526,506,0.0,5496,67,520,507,0,506,-1
22312083.42857102,526,506,0.0,5496,67,520,507,0,506,-1
22326369.142856732,526,506,0.0,5496,67,520,507,0,506,-1
22340654.857142445,525,506,0.0,5496,67,520,507,0,506,-1
22354940.571428157,525,506,0.0,5496,67,520,507,0,506,-1
22369226.28571387,523,506,0.0,5496,67,520,507,0,506,-1
22383511.999999583,519,506,0.0,5496,67,520,507,0,506,-1
22397797.714285295,515,506,0.0,5496,67,520,507,0,506,-1
22412083.42857101,509,507,0.0,5496,67,520,507,0,506,-1
22426369.14285672,506,507,0.0,5496,67,520,507,0,506,-1
22440654.857142434,502,506,0.0,5496,67,520,507,0,506,-1
22454940.571428146,499,506,0.0,5496,67,520,507,0,506,-1
22469226.28571386,497,506,0.0,5496,67,520,507,0,506,-1
22483511.99999957,496,507,0.0,5496,67,520,507,0,506,-1
22497797.714285284,496,507,0.0,5496,67,520,507,0,506,-1
22512083.428570997,496,507,0.0,5496,67,520,507,0,506,-1
22526369.14285671,496,507,0.0,5496,67,520,507,0,506,-1
22540654.857142422,496,507,0.0,5496,67,520,507,0,506,-1
22554940.571428135,497,507,0.0,5496,67,520,507,0,506,-1
22569226.285713848,497,506,0.0,5496,67,520,507,0,506,-1
22583511.99999956,497,506,0.0,5496,67,520,507,0,506,-1
22597797.714285273,497,506,0.0,5496,67,520,507,0,506,-1
22612083.428570986,497,506,0.0,5496,67,520,507,0,506,-1
22626369.1428567,496,506,0.0,5496,67,520,507,0,506,-1
22640654.85714241,497,506,0.0,5496,67,520,507,0,506,-1
22654940.571428124,497,506,0.0,5496,67,520,507,0,506,-1
22669226.285713837,497,506,0.0,5496,67,520,507,0,506,-1
22683511.99999955,497,506,0.0,5496,67,520,507,0,506,-1
22697797.714285262,497,506,0.0,5496,67,520,507,0,506,-1
22712083.428570975,497,506,0.0,5496,67,520,507,0,506,-1
22726369.142856687,497,506,0.0,5496,67,520,507,0,506,-1
22740654.8571424,499,506,0.0,40264,68,497,506,0,502,-1
22754940.571428113,499,506,0.0,40264,68,497,506,0,502,-1
22769226.285713825,499,506,0.0,40264,68,497,506,0,502,-1
22783511.999999538,498,506,0.0,40264,68,497,506,0,502,-1
22797797.71428525,499,506,0.0,40264,68,497,506,0,502,-1
22812083.428570963,499,506,0.0,40264,68,497,506,0,502,-1
22826369.142856676,500,506,0.0,40264,68,497,506,0,502,-1
22840654.85714239,500,506,0.0,40264,68,497,506,0,502,-1
22854940.5714281,501,506,0.0,40264,68,497,506,0,502,-1
22869226.285713814,500,506,0.0,40264,68,497,506,0,502,-1
22883511.999999527,499,506,0.0,40264,68,497,506,0,502,-1
22897797.71428524,496,506,0.0,40264,68,497,506,0,502,-1
22912083.428570952,490,506,0.0,40264,68,497,506,0,502,-1
22926369.142856665,481,506,0.0,40264,68,497,506,0,502,-1
22940654.857142378,472,506,0.0,40264,68,497,506,0,502,-1
22954940.57142809,469,507,0.0,40264,68,497,506,0,502,-1
22969226.285713803,472,507,0.0,40264,68,497,506,0,502,-1
22983511.999999516,483,507,0.0,40264,68,497,506,0,502,-1
22997797.71428523,505,507,0.0,40264,68,497,506,0,502,-1
23012083.42857094,536,507,0.0,40264,68,497,506,0,502,-1
23026369.142856654,573,507,0.0,40264,68,497,506,0,502,-1
23040654.857142366,615,506,0.0,40264,68,497,506,0,502,-1
23054940.57142808,659,506,0.0,40264,68,497,506,0,502,-1
23069226.28571379,701,506,0.0,40264,68,497,506,0,502,-1
23083511.999999505,731,506,0.0,40264,68,497,506,0,502,-1
23097797.714285217,744,506,0.0,40264,68,497,506,0,502,-1
23112083.42857093,736,506,0.0,40264,68,497,506,0,502,-1
23126369.142856643,708,506,0.0,40264,68,497,506,0,502,-1
23140654.857142355,666,506,0.0,40264,68,497,506,0,502,-1
23154940.571428068,617,507,0.0,40264,68,497,506,0,502,-1
23169226.28571378,570,507,0.0,40264,68,497,506,0,502,-1
23183511.999999493,530,506,0.0,40264,68,497,506,0,502,-1
23197797.714285206,500,506,0.0,40264,68,497,506,0,502,-1
23212083.42857092,479,506,0.0,40264,68,497,506,0,502,-1
23226369.14285663,471,506,0.0,40264,68,497,506,0,502,-1
23240654.857142344,471,506,0.0,40264,68,497,506,0,502,-1
23254940.571428057,464,507,0.0,9496,70,471,506,0,501,-1
23269226.28571377,465,507,0.0,9496,70,471,506,0,501,-1
23283511.999999482,466,506,0.0,9496,70,471,506,0,501,-1
23297797.714285195,467,506,0.0,9496,70,471,506,0,501,-1
23312083.428570908,468,506,0.0,9496,70,471,506,0,501,-1
23326369.14285662,469,506,0.0,9496,70,471,506,0,501,-1
23340654.857142333,470,506,0.0,9496,70,471,506,0,501,-1
23354940.571428046,471,506,0.0,9496,70,471,506,0,501,-1
23369226.28571376,471,506,0.0,9496,70,471,506,0,501,-1
23383511.99999947,472,506,0.0,9496,70,471,506,0,501,-1
23397797.714285184,472,506,0.0,9496,70,471,506,0,501,-1
23412083.428570896,473,506,0.0,9496,70,471,506,0,501,-1
23426369.14285661,474,506,0.0,9496,70,471,506,0,501,-1
23440654.85714232,475,506,0.0,9496,70,471,506,0,501,-1
23454940.571428034,476,506,0.0,9496,70,471,506,0,501,-1
23469226.285713747,478,507,0.0,9496,70,471,506,0,501,-1
23483511.99999946,479,507,0.0,9496,70,471,506,0,501,-1
23497797.714285173,481,507,0.0,9496,70,471,506,0,501,-1
23512083.428570885,482,507,0.0,9496,70,471,506,0,501,-1
23526369.142856598,483,507,0.0,9496,70,471,506,0,501,-1
23540654.85714231,483,507,0.0,9496,70,471,506,0,501,-1
23554940.571428023,484,506,0.0,9496,70,471,506,0,501,-1
23569226.285713736,485,506,0.0,9496,70,471,506,0,501,-1
23583511.99999945,486,506,0.0,9496,70,471,506,0,501,-1
23597797.71428516,487,506,0.0,9496,70,471,506,0,501,-1
23612083.428570874,488,506,0.0,9496,70,471,506,0,501,-1
23626369.142856587,490,507,0.0,9496,70,471,506,0,501,-1
23640654.8571423,491,507,0.0,9496,70,471,506,0,501,-1
23654940.571428012,491,506,0.0,9496,70,471,506,0,501,-1
23669226.285713725,492,506,0.0,9496,70,471,506,0,501,-1
23683511.999999437,493,506,0.0,9496,70,471,506,0,501,-1
23697797.71428515,494,506,0.0,9496,70,471,506,0,501,-1
23712083.428570863,495,506,0.0,9496,70,471,506,0,501,-1
23726369.142856576,496,507,0.0,9496,70,471,506,0,501,-1
23740654.85714229,497,507,0.0,9496,70,471,506,0,501,-1
23754940.571428,497,507,0.0,9496,70,471,506,0,501,-1
23769226.285713714,500,507,0.0,44944,71,497,507,0,505,-1
23783511.999999426,501,507,0.0,44944,71,497,507,0,505,-1
23797797.71428514,501,507,0.0,44944,71,497,507,0,505,-1
23812083.42857085,502,507,0.0,44944,71,497,507,0,505,-1
23826369.142856564,503,507,0.0,44944,71,497,507,0,505,-1
23840654.857142277,504,506,0.0,44944,71,497,507,0,505,-1
23854940.57142799,504,506,0.0,44944,71,497,507,0,505,-1
23869226.285713702,505,506,0.0,44944,71,497,507,0,505,-1
23883511.999999415,506,506,0.0,44944,71,497,507,0,505,-1
23897797.714285128,507,506,0.0,44944,71,497,507,0,505,-1
23912083.42857084,508,506,0.0,44944,71,497,507,0,505,-1
23926369.142856553,508,506,0.0,44944,71,497,507,0,505,-1
23940654.857142266,509,506,0.0,44944,71,497,507,0,505,-1
23954940.57142798,510,506,0.0,44944,71,497,507,0,505,-1
23969226.28571369,511,506,0.0,44944,71,497,507,0,505,-1
23983511.999999404,512,506,0.0,44944,71,497,507,0,505,-1
23997797.714285117,513,506,0.0,44944,71,497,507,0,505,-1
24012083.42857083,514,506,0.0,44944,71,497,507,0,505,-1
24026369.142856542,514,506,0.0,44944,71,497,507,0,505,-1
24040654.857142255,515,506,0.0,44944,71,497,507,0,505,-1
24054940.571427967,516,506,0.0,44944,71,497,507,0,505,-1
24069226.28571368,516,506,0.0,44944,71,497,507,0,505,-1
24083511.999999393,517,506,0.0,44944,71,497,507,0,505,-1
24097797.714285105,518,506,0.0,44944,71,497,507,0,505,-1
24112083.42857082,518,506,0.0,44944,71,497,507,0,505,-1
24126369.14285653,519,507,0.0,44944,71,497,507,0,505,-1
24140654.857142244,519,507,0.0,44944,71,497,507,0,505,-1
24154940.571427956,520,507,0.0,44944,71,497,507,0,505,-1
24169226.28571367,520,507,0.0,44944,71,497,507,0,505,-1
24183511.99999938,520,507,0.0,44944,71,497,507,0,505,-1
24197797.714285094,520,507,0.0,44944,71,497,507,0,505,-1
24212083.428570807,520,507,0.0,44944,71,497,507,0,505,-1
24226369.14285652,520,506,0.0,44944,71,497,507,0,505,-1
24240654.857142232,519,506,0.0,44944,71,497,507,0,505,-1
24254940.571427945,519,506,0.0,44944,71,497,507,0,505,-1
24269226.285713658,519,506,0.0,44944,71,497,507,0,505,-1
24283511.99999937,518,506,0.0,13480,73,519,506,0,506,-1
24297797.714285083,518,506,0.0,13480,73,519,506,0,506,-1
24312083.428570796,518,506,0.0,13480,73,519,506,0,506,-1
24326369.14285651,517,506,0.0,13480,73,519,506,0,506,-1
24340654.85714222,517,506,0.0,13480,73,519,506,0,506,-1
24354940.571427934,517,506,0.0,13480,73,519,506,0,506,-1
24369226.285713647,517,506,0.0,13480,73,519,506,0,506,-1
24383511.99999936,517,506,0.0,13480,73,519,506,0,506,-1
24397797.714285072,517,506,0.0,13480,73,519,506,0,506,-1
24412083.428570785,516,506,0.0,13480,73,519,506,0,506,-1
24426369.142856497,516,506,0.0,13480,73,519,506,0,506,-1
24440654.85714221,514,506,0.0,13480,73,519,506,0,506,-1
24454940.571427923,513,506,0.0,13480,73,519,506,0,506,-1
24469226.285713635,511,507,0.0,13480,73,519,506,0,506,-1
24483511.999999348,509,506,0.0,13480,73,519,506,0,506,-1
24497797.71428506,507,506,0.0,13480,73,519,506,0,506,-1
24512083.428570773,506,507,0.0,13480,73,519,506,0,506,-1
24526369.142856486,504,507,0.0,13480,73,519,506,0,506,-1
24540654.8571422,502,507,0.0,13480,73,519,506,0,506,-1
24554940.57142791,499,507,0.0,13480,73,519,506,0,506,-1
24569226.285713624,498,507,0.0,13480,73,519,506,0,506,-1
24583511.999999337,497,507,0.0,13480,73,519,506,0,506,-1
24597797.71428505,496,507,0.0,13480,73,519,506,0,506,-1
24612083.428570762,494,507,0.0,13480,73,519,506,0,506,-1
24626369.142856475,493,507,0.0,13480,73,519,506,0,506,-1
24640654.857142188,492,506,0.0,13480,73,519,506,0,506,-1
24654940.5714279,491,506,0.0,13480,73,519,506,0,506,-1
24669226.285713613,490,506,0.0,13480,73,519,506,0,506,-1
24683511.999999326,490,506,0.0,13480,73,519,506,0,506,-1
24697797.71428504,489,506,0.0,13480,73,519,506,0,506,-1
24712083.42857075,489,506,0.0,13480,73,519,506,0,506,-1
24726369.142856464,489,506,0.0,13480,73,519,506,0,506,-1
24740654.857142176,489,506,0.0,13480,73,519,506,0,506,-1
24754940.57142789,489,507,0.0,13480,73,519,506,0,506,-1
24769226.2857136,489,507,0.0,13480,73,519,506,0,506,-1
24783511.999999315,489,507,0.0,13480,73,519,506,0,506,-1
24797797.714285027,491,506,0.0,48248,74,489,507,0,503,-1
24812083.42857074,491,506,0.0,48248,74,489,507,0,503,-1
24826369.142856453,492,506,0.0,48248,74,489,507,0,503,-1
24840654.857142165,493,506,0.0,48248,74,489,507,0,503,-1
24854940.571427878,493,506,0.0,48248,74,489,507,0,503,-1
24869226.28571359,494,507,0.0,48248,74,489,507,0,503,-1
24883511.999999303,495,506,0.0,48248,74,489,507,0,503,-1
24897797.714285016,496,506,0.0,48248,74,489,507,0,503,-1
24912083.42857073,496,506,0.0,48248,74,489,507,0,503,-1
24926369.14285644,496,506,0.0,48248,74,489,507,0,503,-1
24940654.857142154,497,506,0.0,48248,74,489,507,0,503,-1
24954940.571427867,498,506,0.0,48248,74,489,507,0,503,-1
24969226.28571358,498,506,0.0,48248,74,489,507,0,503,-1
24983511.999999292,499,506,0.0,48248,74,489,507,0,503,-1
24997797.714285005,499,506,0.0,48248,74,489,507,0,503,-1
25012083.428570718,500,506,0.0,48248,74,489,507,0,503,-1
25026369.14285643,500,506,0.0,48248,74,489,507,0,503,-1
25040654.857142143,501,506,0.0,48248,74,489,507,0,503,-1
25054940.571427856,501,506,0.0,48248,74,489,507,0,503,-1
25069226.28571357,502,506,0.0,48248,74,489,507,0,503,-1
25083511.99999928,503,506,0.0,48248,74,489,507,0,503,-1
25097797.714284994,503,506,0.0,48248,74,489,507,0,503,-1
25112083.428570706,503,507,0.0,48248,74,489,507,0,503,-1
25126369.14285642,503,507,0.0,48248,74,489,507,0,503,-1
25140654.85714213,504,506,0.0,48248,74,489,507,0,503,-1
25154940.571427844,504,506,0.0,48248,74,489,507,0,503,-1
25169226.285713557,505,506,0.0,48248,74,489,507,0,503,-1
25183511.99999927,505,506,0.0,48248,74,489,507,0,503,-1
25197797.714284983,506,506,0.0,48248,74,489,507,0,503,-1
25212083.428570695,505,506,0.0,48248,74,489,507,0,503,-1
25226369.142856408,505,506,0.0,48248,74,489,507,0,503,-1
25240654.85714212,505,506,0.0,48248,74,489,507,0,503,-1
25254940.571427833,506,506,0.0,48248,74,489,507,0,503,-1
25269226.285713546,505,506,0.0,48248,74,489,507,0,503,-1
25283511.99999926,505,506,0.0,48248,74,489,507,0,503,-1
25297797.71428497,505,506,0.0,48248,74,489,507,0,503,-1
25312083.428570684,504,506,0.0,17472,76,505,506,0,504,-1
25326369.142856397,503,507,0.0,17472,76,505,506,0,504,-1
25340654.85714211,503,507,0.0,17472,76,505,506,0,504,-1
25354940.571427822,503,507,0.0,17472,76,505,506,0,504,-1
25369226.285713535,503,506,0.0,17472,76,505,506,0,504,-1
25383511.999999247,503,507,0.0,17472,76,505,506,0,504,-1
25397797.71428496,503,507,0.0,17472,76,505,506,0,504,-1
25412083.428570673,502,507,0.0,17472,76,505,506,0,504,-1
25426369.142856386,502,507,0.0,17472,76,505,506,0,504,-1
25440654.8571421,502,507,0.0,17472,76,505,506,0,504,-1
25454940.57142781,502,507,0.0,17472,76,505,506,0,504,-1
25469226.285713524,502,507,0.0,17472,76,505,506,0,504,-1
25483511.999999236,501,507,0.0,17472,76,505,506,0,504,-1
25497797.71428495,501,507,0.0,17472,76,505,506,0,504,-1
25512083.42857066,502,507,0.0,17472,76,505,506,0,504,-1
25526369.142856374,502,507,0.0,17472,76,505,506,0,504,-1
25540654.857142087,501,507,0.0,17472,76,505,506,0,504,-1
25554940.5714278,501,507,0.0,17472,76,505,506,0,504,-1
25569226.285713512,501,507,0.0,17472,76,505,506,0,504,-1
25583511.999999225,501,507,0.0,17472,76,505,506,0,504,-1
25597797.714284938,502,507,0.0,17472,76,505,506,0,504,-1
25612083.42857065,502,506,0.0,17472,76,505,506,0,504,-1
25626369.142856363,501,506,0.0,17472,76,505,506,0,504,-1
25640654.857142076,501,507,0.0,17472,76,505,506,0,504,-1
25654940.57142779,502,507,0.0,17472,76,505,506,0,504,-1
25669226.2857135,502,507,0.0,17472,76,505,506,0,504,-1
25683511.999999214,501,507,0.0,17472,76,505,506,0,504,-1
25697797.714284927,501,507,0.0,17472,76,505,506,0,504,-1
25712083.42857064,501,506,0.0,17472,76,505,506,0,504,-1
25726369.142856352,501,507,0.0,17472,76,505,506,0,504,-1
25740654.857142065,501,507,0.0,17472,76,505,506,0,504,-1
25754940.571427777,501,507,0.0,17472,76,505,506,0,504,-1
25769226.28571349,502,506,0.0,17472,76,505,506,0,504,-1
25783511.999999203,502,506,0.0,17472,76,505,506,0,504,-1
25797797.714284915,502,506,0.0,17472,76,505,506,0,504,-1
25812083.42857063,502,506,0.0,17472,76,505,506,0,504,-1
25826369.14285634,503,506,0.0,52240,77,502,506,0,504,-1
25840654.857142054,503,506,0.0,52240,77,502,506,0,504,-1
25854940.571427766,503,506,0.0,52240,77,502,506,0,504,-1
25869226.28571348,503,506,0.0,52240,77,502,506,0,504,-1
25883511.99999919,503,506,0.0,52240,77,502,506,0,504,-1
25897797.714284904,503,506,0.0,52240,77,502,506,0,504,-1
25912083.428570617,503,506,0.0,52240,77,502,506,0,504,-1
25926369.14285633,503,506,0.0,52240,77,502,506,0,504,-1
25940654.857142042,504,506,0.0,52240,77,502,506,0,504,-1
25954940.571427755,504,507,0.0,52240,77,502,506,0,504,-1
25969226.285713468,504,507,0.0,52240,77,502,506,0,504,-1
25983511.99999918,504,507,0.0,52240,77,502,506,0,504,-1
25997797.714284893,504,507,0.0,52240,77,502,506,0,504,-1
26012083.428570606,504,507,0.0,52240,77,502,506,0,504,-1
26026369.14285632,504,507,0.0,52240,77,502,506,0,504,-1
26040654.85714203,505,507,0.0,52240,77,502,506,0,504,-1
26054940.571427744,505,507,0.0,52240,77,502,506,0,504,-1
26069226.285713457,505,507,0.0,52240,77,502,506,0,504,-1
26083511.99999917,505,506,0.0,52240,77,502,506,0,504,-1
26097797.714284882,504,506,0.0,52240,77,502,506,0,504,-1
26112083.428570595,504,506,0.0,52240,77,502,506,0,504,-1
26126369.142856307,505,506,0.0,52240,77,502,506,0,504,-1
26140654.85714202,505,506,0.0,52240,77,502,506,0,504,-1
26154940.571427733,505,506,0.0,52240,77,502,506,0,504,-1
26169226.285713445,505,507,0.0,52240,77,502,506,0,504,-1
26183511.999999158,505,506,0.0,52240,77,502,506,0,504,-1
26197797.71428487,505,507,0.0,52240,77,502,506,0,504,-1
26212083.428570583,505,506,0.0,52240,77,502,506,0,504,-1
26226369.142856296,505,506,0.0,52240,77,502,506,0,504,-1
26240654.85714201,506,506,0.0,52240,77,502,506,0,504,-1
26254940.57142772,506,507,0.0,52240,77,502,506,0,504,-1
26269226.285713434,507,507,0.0,52240,77,502,506,0,504,-1
26283511.999999147,507,507,0.0,52240,77,502,506,0,504,-1
26297797.71428486,507,507,0.0,52240,77,502,506,0,504,-1
26312083.428570572,507,507,0.0,52240,77,502,506,0,504,-1
26326369.142856285,507,507,0.0,52240,77,502,506,0,504,-1
26340654.857141998,507,507,0.0,21464,79,507,507,0,504,-1
26354940.57142771,507,507,0.0,21464,79,507,507,0,504,-1
26369226.285713423,507,507,0.0,21464,79,507,507,0,504,-1
26383511.999999136,507,507,0.0,21464,79,507,507,0,504,-1
26397797.71428485,507,507,0.0,21464,79,507,507,0,504,-1
26412083.42857056,507,507,0.0,21464,79,507,507,0,504,-1
26426369.142856274,507,507,0.0,21464,79,507,507,0,504,-1
26440654.857141986,507,507,0.0,21464,79,507,507,0,504,-1
26454940.5714277,507,506,0.0,21464,79,507,507,0,504,-1
26469226.285713412,507,506,0.0,21464,79,507,507,0,504,-1
26483511.999999125,508,507,0.0,21464,79,507,507,0,504,-1
26497797.714284837,508,507,0.0,21464,79,507,507,0,504,-1
26512083.42857055,508,507,0.0,21464,79,507,507,0,504,-1
26526369.142856263,509,507,0.0,21464,79,507,507,0,504,-1
26540654.857141975,508,507,0.0,21464,79,507,507,0,504,-1
26554940.571427688,508,507,0.0,21464,79,507,507,0,504,-1
26569226.2857134,509,507,0.0,21464,79,507,507,0,504,-1
26583511.999999113,509,507,0.0,21464,79,507,507,0,504,-1
26597797.714284826,509,507,0.0,21464,79,507,507,0,504,-1
26612083.42857054,509,507,0.0,21464,79,507,507,0,504,-1
26626369.14285625,509,507,0.0,21464,79,507,507,0,504,-1
26640654.857141964,509,507,0.0,21464,79,507,507,0,504,-1
26654940.571427677,509,506,0.0,21464,79,507,507,0,504,-1
26669226.28571339,509,506,0.0,21464,79,507,507,0,504,-1
26683511.999999102,509,506,0.0,21464,79,507,507,0,504,-1
26697797.714284815,510,507,0.0,21464,79,507,507,0,504,-1
26712083.428570528,512,507,0.0,21464,79,507,507,0,504,-1
26726369.14285624,514,507,0.0,21464,79,507,507,0,504,-1
26740654.857141953,516,507,0.0,21464,79,507,507,0,504,-1
26754940.571427666,517,506,0.0,21464,79,507,507,0,504,-1
26769226.28571338,518,506,0.0,21464,79,507,507,0,504,-1
26783511.99999909,520,506,0.0,21464,79,507,507,0,504,-1
26797797.714284804,521,507,0.0,21464,79,507,507,0,504,-1
26812083.428570516,521,507,0.0,21464,79,507,507,0,504,-1
26826369.14285623,521,507,0.0,21464,79,507,507,0,504,-1
26840654.85714194,521,507,0.0,21464,79,507,507,0,504,-1
26854940.571427654,523,507,0.0,56232,80,521,507,0,504,-1
26869226.285713367,525,507,0.0,56232,80,521,507,0,504,-1
26883511.99999908,526,507,0.0,56232,80,521,507,0,504,-1
26897797.714284793,527,507,0.0,56232,80,521,507,0,504,-1
26912083.428570505,527,506,0.0,56232,80,521,507,0,504,-1
26926369.142856218,527,506,0.0,56232,80,521,507,0,504,-1
26940654.85714193,527,506,0.0,56232,80,521,507,0,504,-1
26954940.571427643,526,506,0.0,56232,80,521,507,0,504,-1
26969226.285713356,526,506,0.0,56232,80,521,507,0,504,-1
26983511.99999907,526,506,0.0,56232,80,521,507,0,504,-1
26997797.71428478,525,506,0.0,56232,80,521,507,0,504,-1
27012083.428570494,524,506,0.0,56232,80,521,507,0,504,-1
27026369.142856207,521,507,0.0,56232,80,521,507,0,504,-1
27040654.85714192,516,507,0.0,56232,80,521,507,0,504,-1
27054940.571427632,511,507,0.0,56232,80,521,507,0,504,-1
27069226.285713345,507,506,0.0,56232,80,521,507,0,504,-1
27083511.999999058,503,506,0.0,56232,80,521,507,0,504,-1
27097797.71428477,499,506,0.0,56232,80,521,507,0,504,-1
27112083.428570483,497,506,0.0,56232,80,521,507,0,504,-1
27126369.142856196,496,506,0.0,56232,80,521,507,0,504,-1
27140654.85714191,496,507,0.0,56232,80,521,507,0,504,-1
27154940.57142762,496,507,0.0,56232,80,521,507,0,504,-1
27169226.285713334,496,507,0.0,56232,80,521,507,0,504,-1
27183511.999999046,496,507,0.0,56232,80,521,507,0,504,-1
27197797.71428476,495,506,0.0,56232,80,521,507,0,504,-1
27212083.42857047,495,506,0.0,56232,80,521,507,0,504,-1
27226369.142856184,496,506,0.0,56232,80,521,507,0,504,-1
27240654.857141897,496,506,0.0,56232,80,521,507,0,504,-1
27254940.57142761,496,506,0.0,56232,80,521,507,0,504,-1
27269226.285713322,496,506,0.0,56232,80,521,507,0,504,-1
27283511.999999035,496,506,0.0,56232,80,521,507,0,504,-1
27297797.714284748,496,507,0.0,56232,80,521,507,0,504,-1
27312083.42857046,496,507,0.0,56232,80,521,507,0,504,-1
27326369.142856173,496,507,0.0,56232,80,521,507,0,504,-1
27340654.857141886,496,507,0.0,56232,80,521,507,0,504,-1
27354940.5714276,496,507,0.0,56232,80,521,507,0,504,-1
27369226.28571331,497,507,0.0,25456,82,496,507,0,501,-1
27383511.999999024,498,507,0.0,25456,82,496,507,0,501,-1
27397797.714284737,498,506,0.0,25456,82,496,507,0,501,-1
27412083.42857045,498,506,0.0,25456,82,496,507,0,501,-1
27426369.142856162,498,507,0.0,25456,82,496,507,0,501,-1
27440654.857141875,499,507,0.0,25456,82,496,507,0,501,-1
27454940.571427587,500,507,0.0,25456,82,496,507,0,501,-1
27469226.2857133,500,507,0.0,25456,82,496,507,0,501,-1
27483511.999999013,501,507,0.0,25456,82,496,507,0,501,-1
27497797.714284725,501,507,0.0,25456,82,496,507,0,501,-1
27512083.42857044,501,507,0.0,25456,82,496,507,0,501,-1
27526369.14285615,499,506,0.0,25456,82,496,507,0,501,-1
27540654.857141864,496,507,0.0,25456,82,496,507,0,501,-1
27554940.571427576,490,507,0.0,25456,82,496,507,0,501,-1
27569226.28571329,481,506,0.0,25456,82,496,507,0,501,-1
27583511.999999,473,506,0.0,25456,82,496,507,0,501,-1
27597797.714284714,469,506,0.0,25456,82,496,507,0,501,-1
27612083.428570427,472,506,0.0,25456,82,496,507,0,501,-1
27626369.14285614,484,506,0.0,25456,82,496,507,0,501,-1
27640654.857141852,505,506,0.0,25456,82,496,507,0,501,-1
27654940.571427565,536,506,0.0,25456,82,496,507,0,501,-1
27669226.285713278,572,507,0.0,25456,82,496,507,0,501,-1
27683511.99999899,614,507,0.0,25456,82,496,507,0,501,-1
27697797.714284703,658,507,0.0,25456,82,496,507,0,501,-1
27712083.428570416,700,506,0.0,25456,82,496,507,0,501,-1
27726369.14285613,735,506,0.0,25456,82,496,507,0,501,-1
27740654.85714184,744,506,0.0,25456,82,496,507,0,501,-1
27754940.571427554,737,506,0.0,25456,82,496,507,0,501,-1
27769226.285713267,709,506,0.0,25456,82,496,507,0,501,-1
27783511.99999898,667,506,0.0,25456,82,496,507,0,501,-1
27797797.714284692,619,506,0.0,25456,82,496,507,0,501,-1
27812083.428570405,571,506,0.0,25456,82,496,507,0,501,-1
27826369.142856117,532,506,0.0,25456,82,496,507,0,501,-1
27840654.85714183,502,506,0.0,25456,82,496,507,0,501,-1
27854940.571427543,483,506,0.0,25456,82,496,507,0,501,-1
27869226.285713255,483,506,0.0,25456,82,496,507,0,501,-1
27883511.999998968,464,506,0.0,60224,83,483,506,0,536,-1
27897797.71428468,464,507,0.0,60224,83,483,506,0,536,-1
27912083.428570393,466,507,0.0,60224,83,483,506,0,536,-1
27926369.142856106,467,507,0.0,60224,83,483,506,0,536,-1
27940654.85714182,468,507,0.0,60224,83,483,506,0,536,-1
27954940.57142753,469,506,0.0,60224,83,483,506,0,536,-1
27969226.285713244,470,506,0.0,60224,83,483,506,0,536,-1
27983511.999998957,471,506,0.0,60224,83,483,506,0,536,-1
27997797.71428467,471,506,0.0,60224,83,483,506,0,536,-1
28012083.428570382,472,506,0.0,60224,83,483,506,0,536,-1
28026369.142856095,473,506,0.0,60224,83,483,506,0,536,-1
28040654.857141808,474,506,0.0,60224,83,483,506,0,536,-1
28054940.57142752,474,506,0.0,60224,83,483,506,0,536,-1
28069226.285713233,475,506,0.0,60224,83,483,506,0,536,-1
28083511.999998946,476,506,0.0,60224,83,483,506,0,536,-1
28097797.71428466,477,506,0.0,60224,83,483,506,0,536,-1
28112083.42857037,479,506,0.0,60224,83,483,506,0,536,-1
28126369.142856084,480,506,0.0,60224,83,483,506,0,536,-1
28140654.857141796,481,506,0.0,60224,83,483,506,0,536,-1
28154940.57142751,482,506,0.0,60224,83,483,506,0,536,-1
28169226.285713222,483,506,0.0,60224,83,483,506,0,536,-1
28183511.999998935,484,505,0.0,60224,83,483,506,0,536,-1
28197797.714284647,485,506,0.0,60224,83,483,506,0,536,-1
28212083.42857036,486,506,0.0,60224,83,483,506,0,536,-1
28226369.142856073,487,506,0.0,60224,83,483,506,0,536,-1
28240654.857141785,488,506,0.0,60224,83,483,506,0,536,-1
28254940.571427498,489,506,0.0,60224,83,483,506,0,536,-1
28269226.28571321,490,506,0.0,60224,83,483,506,0,536,-1
28283511.999998923,491,506,0.0,60224,83,483,506,0,536,-1
28297797.714284636,492,506,0.0,60224,83,483,506,0,536,-1
28312083.42857035,493,506,0.0,60224,83,483,506,0,536,-1
28326369.14285606,494,506,0.0,60224,83,483,506,0,536,-1
28340654.857141774,495,506,0.0,60224,83,483,506,0,536,-1
28354940.571427487,495,506,0.0,60224,83,483,506,0,536,-1
28369226.2857132,496,506,0.0,60224,83,483,506,0,536,-1
28383511.999998912,496,506,0.0,60224,83,483,506,0,536,-1
28397797.714284625,499,506,0.0,29448,85,496,506,0,496,-1
28412083.428570338,500,506,0.0,29448,85,496,506,0,496,-1
28426369.14285605,501,506,0.0,29448,85,496,506,0,496,-1
28440654.857141763,502,506,0.0,29448,85,496,506,0,496,-1
28454940.571427476,502,506,0.0,29448,85,496,506,0,496,-1
28469226.28571319,504,506,0.0,29448,85,496,506,0,496,-1
28483511.9999989,505,506,0.0,29448,85,496,506,0,496,-1
28497797.714284614,506,506,0.0,29448,85,496,506,0,496,-1
28512083.428570326,506,506,0.0,29448,85,496,506,0,496,-1
28526369.14285604,507,506,0.0,29448,85,496,506,0,496,-1
28540654.85714175,508,506,0.0,29448,85,496,506,0,496,-1
28554940.571427464,508,506,0.0,29448,85,496,506,0,496,-1
28569226.285713177,508,506,0.0,29448,85,496,506,0,496,-1
28583511.99999889,509,506,0.0,29448,85,496,506,0,496,-1
28597797.714284603,510,506,0.0,29448,85,496,506,0,496,-1
28612083.428570315,511,506,0.0,29448,85,496,506,0,496,-1
28626369.142856028,511,506,0.0,29448,85,496,506,0,496,-1
28640654.85714174,512,506,0.0,29448,85,496,506,0,496,-1
28654940.571427453,513,506,0.0,29448,85,496,506,0,496,-1
28669226.285713166,513,506,0.0,29448,85,496,506,0,496,-1
28683511.99999888,514,507,0.0,29448,85,496,506,0,496,-1
28697797.71428459,515,507,0.0,29448,85,496,506,0,496,-1
28712083.428570304,515,507,0.0,29448,85,496,506,0,496,-1
28726369.142856017,516,507,0.0,29448,85,496,506,0,496,-1
28740654.85714173,516,507,0.0,29448,85,496,506,0,496,-1
28754940.571427442,516,507,0.0,29448,85,496,506,0,496,-1
28769226.285713155,516,507,0.0,29448,85,496,506,0,496,-1
28783511.999998868,517,506,0.0,29448,85,496,506,0,496,-1
28797797.71428458,517,506,0.0,29448,85,496,506,0,496,-1
28812083.428570293,518,506,0.0,29448,85,496,506,0,496,-1
28826369.142856006,518,507,0.0,29448,85,496,506,0,496,-1
28840654.85714172,518,507,0.0,29448,85,496,506,0,496,-1
28854940.57142743,519,507,0.0,29448,85,496,506,0,496,-1
28869226.285713144,519,507,0.0,29448,85,496,506,0,496,-1
28883511.999998856,519,507,0.0,29448,85,496,506,0,496,-1
28897797.71428457,519,507,0.0,29448,85,496,506,0,496,-1
28912083.42857028,518,507,0.0,64216,86,519,507,0,503,-1
28926369.142855994,518,506,0.0,64216,86,519,507,0,503,-1
28940654.857141707,517,506,0.0,64216,86,519,507,0,503,-1
28954940.57142742,517,506,0.0,64216,86,519,507,0,503,-1
28969226.285713132,517,506,0.0,64216,86,519,507,0,503,-1
28983511.999998845,517,506,0.0,64216,86,519,507,0,503,-1
28997797.714284558,517,506,0.0,64216,86,519,507,0,503,-1
29012083.42857027,516,506,0.0,64216,86,519,507,0,503,-1
29026369.142855983,515,506,0.0,64216,86,519,507,0,503,-1
29040654.857141696,514,507,0.0,64216,86,519,507,0,503,-1
29054940.57142741,514,507,0.0,64216,86,519,507,0,503,-1
29069226.28571312,514,507,0.0,64216,86,519,507,0,503,-1
29083511.999998834,513,507,0.0,64216,86,519,507,0,503,-1
29097797.714284547,512,507,0.0,64216,86,519,507,0,503,-1
29112083.42857026,510,506,0.0,64216,86,519,507,0,503,-1
29126369.142855972,509,506,0.0,64216,86,519,507,0,503,-1
29140654.857141685,507,506,0.0,64216,86,519,507,0,503,-1
29154940.571427397,505,506,0.0,64216,86,519,507,0,503,-1
29169226.28571311,503,506,0.0,64216,86,519,507,0,503,-1
29183511.999998823,501,506,0.0,64216,86,519,507,0,503,-1
29197797.714284535,499,506,0.0,64216,86,519,507,0,503,-1
29212083.42857025,498,506,0.0,64216,86,519,507,0,503,-1
29226369.14285596,496,506,0.0,64216,86,519,507,0,503,-1
29240654.857141674,495,507,0.0,64216,86,519,507,0,503,-1
